00 0f 36 00 63 0a 5b 00 00 00 00 01 00 01 00 00 
00 07 a6 00 63 0a 5b 00 00 00 00 01 00 01 00 82 
00 07 6c 00 63 0a 5b 00 00 00 00 01 00 01 00 82 
00 07 18 00 63 0a 5b 00 00 00 00 01 00 01 00 82 
00 06 fc 00 63 0a 5b 00 00 00 00 01 00 01 00 82 
00 06 fd 00 63 0a 5b 00 00 00 00 01 00 01 00 82 
00 07 2d 00 63 0a 5b 00 00 00 00 01 00 01 00 82 
00 07 2a 00 63 0a 5b 00 00 00 00 01 00 01 00 82 
00 07 38 00 63 0a 5b 00 00 00 00 01 00 01 00 82 
00 07 14 00 63 0a 5b 00 00 00 00 01 00 01 00 82 
00 07 2e 00 63 0a 5b 00 00 00 00 01 00 01 00 82 
00 07 27 00 63 0a 5b 00 00 00 00 01 00 01 00 82 
00 07 3b 00 63 0a 5b 00 00 00 00 01 00 01 00 82 
00 06 f2 00 63 0a 5b 00 00 00 00 01 00 01 00 82 
00 07 59 00 63 0a 5b 00 00 00 00 01 00 01 00 82 
00 07 27 00 63 0a 5b 00 00 00 00 01 00 01 00 82 
00 07 21 00 63 0a 5b 00 00 00 00 01 00 01 00 82 
00 07 08 00 63 0a 5b 00 00 00 00 01 00 01 00 82 
00 07 5f 00 63 0a 5b 00 00 00 00 01 00 01 00 82 
00 07 4d 00 63 0a 5b 00 00 00 00 01 00 01 00 82 
00 07 63 00 63 0a 5b 00 00 00 00 01 00 01 00 82 
00 07 26 00 63 0a 5b 00 00 00 00 01 00 01 00 82 
00 07 1c 00 63 0a 5b 00 00 00 00 01 00 01 00 82 
00 07 49 00 63 0a 5b 00 00 00 00 01 00 01 00 82 
00 07 6f 00 63 0a 5b 00 00 00 00 01 00 01 00 82 
00 07 82 00 63 0a 5b 00 00 00 00 01 00 01 00 82 
00 07 79 00 63 0a 5b 00 00 00 00 01 00 01 00 82 
00 07 1a 00 63 0a 5b 00 00 00 00 01 00 01 00 82 
00 07 22 00 63 0a 5b 00 00 00 00 01 00 01 00 82 
00 07 48 00 63 0a 5b 00 00 00 00 01 00 01 00 82 
00 07 4e 00 63 0a 5b 00 00 00 00 01 00 01 00 82 
00 07 55 00 63 0a 5b 00 00 00 00 01 00 01 00 82 
00 07 3c 00 63 0a 5b 00 00 00 00 01 00 01 00 82 
00 07 61 00 63 0a 5b 00 00 00 00 01 00 01 00 82 
00 07 5a 00 63 0a 5b 00 00 00 00 01 00 01 00 82 
00 07 7c 00 63 0a 5b 00 00 00 00 01 00 01 00 82 
00 07 63 00 63 0a 5b 00 00 00 00 01 00 01 00 82 
00 07 6e 00 63 0a 5b 00 00 00 00 01 00 01 00 82 
00 07 6d 00 63 0a 5b 00 00 00 00 01 00 01 00 82 
00 07 8b 00 63 0a 5b 00 00 00 00 01 00 01 00 82 
00 07 62 00 63 0a 5b 00 00 00 00 01 00 01 00 82 
00 07 65 00 63 0a 5b 00 00 00 00 01 00 01 00 82 
00 07 51 00 63 0a 5b 00 00 00 00 01 00 01 00 82 
00 07 4b 00 63 0a 5b 00 00 00 00 01 00 01 00 82 
00 07 48 00 63 0a 5b 00 00 00 00 01 00 01 00 82 
00 07 61 00 63 0a 5b 00 00 00 00 01 00 01 00 82 
00 07 5b 00 63 0a 5b 00 00 00 00 01 00 01 00 82 
00 07 50 00 63 0a 5b 00 00 00 00 01 00 01 00 82 
00 07 8f 00 63 0a 5b 00 00 00 00 01 00 01 00 82 
00 07 80 00 63 0a 5b 00 00 00 00 01 00 01 00 82 
00 07 63 00 63 0a 5b 00 00 00 00 01 00 01 00 82 
00 07 43 00 63 0a 5b 00 00 00 00 01 00 01 00 82 
00 07 6f 00 63 0a 5b 00 00 00 00 01 00 01 00 82 
00 07 54 00 63 0a 5b 00 00 00 00 01 00 01 00 82 
00 07 69 00 63 0a 5b 00 00 00 00 01 00 01 00 82 
00 07 62 00 63 0a 5b 00 00 00 00 01 00 01 00 82 
00 07 67 00 63 0a 5b 00 00 00 00 01 00 01 00 82 
00 07 48 00 63 0a 5b 00 00 00 00 01 00 01 00 82 
00 07 86 00 63 0a 5b 00 00 00 00 01 00 01 00 82 
00 07 68 00 63 0a 5b 00 00 00 00 01 00 01 00 82 
00 07 80 00 63 0a 5b 00 00 00 00 01 00 01 00 82 
00 07 68 00 63 0a 5b 00 00 00 00 01 00 01 00 82 
00 07 68 00 63 0a 5b 00 00 00 00 01 00 01 00 82 
00 07 36 00 63 0a 5b 00 00 00 00 01 00 01 00 82 
00 07 90 00 63 0a 5b 00 00 00 00 01 00 01 00 82 
00 07 3a 00 63 0a 5b 00 00 00 00 01 00 01 00 82 
00 07 72 00 63 0a 5b 00 00 00 00 01 00 01 00 82 
00 07 7a 00 63 0a 5b 00 00 00 00 01 00 01 00 82 
00 07 a4 00 63 0a 5b 00 00 00 00 01 00 01 00 82 
00 07 25 00 63 0a 5b 00 00 00 00 01 00 01 00 82 
00 07 a4 00 63 0a 5b 00 00 00 00 01 00 01 00 82 
00 07 85 00 63 0a 5b 00 00 00 00 01 00 01 00 82 
00 07 6c 00 63 0a 5b 00 00 00 00 01 00 01 00 82 
00 07 58 00 63 0a 5b 00 00 00 00 01 00 01 00 82 
00 07 7c 00 63 0a 5b 00 00 00 00 01 00 01 00 82 
00 07 52 00 63 0a 5b 00 00 00 00 01 00 01 00 82 
00 07 94 00 63 0a 5b 00 00 00 00 01 00 01 00 82 
00 07 ad 00 63 0a 5b 00 00 00 00 01 00 01 00 82 
00 07 68 00 63 0a 5b 00 00 00 00 01 00 01 00 82 
00 07 83 00 63 0a 5b 00 00 00 00 01 00 01 00 82 
00 07 6f 00 63 0a 5b 00 00 00 00 01 00 01 00 82 
00 07 82 00 63 0a 5b 00 00 00 00 01 00 01 00 82 
00 07 95 00 63 0a 5b 00 00 00 00 01 00 01 00 82 
00 07 70 00 63 0a 5b 00 00 00 00 01 00 01 00 82 
00 07 7a 00 63 0a 5b 00 00 00 00 01 00 01 00 82 
00 07 81 00 63 0a 5b 00 00 00 00 01 00 01 00 82 
00 07 6c 00 63 0a 5b 00 00 00 00 01 00 01 00 82 
00 07 95 00 63 0a 5b 00 00 00 00 01 00 01 00 82 
00 07 de 00 63 0a 5b 00 00 00 00 01 00 01 00 82 
00 07 92 00 63 0a 5b 00 00 00 00 01 00 01 00 82 
00 07 bc 00 63 0a 5b 00 00 00 00 01 00 01 00 82 
00 07 b7 00 63 0a 5b 00 00 00 00 01 00 01 00 82 
00 07 77 00 63 0a 5b 00 00 00 00 01 00 01 00 82 
00 07 be 00 63 0a 5b 00 00 00 00 01 00 01 00 82 
00 07 96 00 63 0a 5b 00 00 00 00 01 00 01 00 82 
00 07 b0 00 63 0a 5b 00 00 00 00 01 00 01 00 82 
00 07 a8 00 63 0a 5b 00 00 00 00 01 00 01 00 82 
00 07 83 00 63 0a 5b 00 00 00 00 01 00 01 00 82 
00 07 b9 00 63 0a 5b 00 00 00 00 01 00 01 00 82 
00 07 ac 00 63 0a 5b 00 00 00 00 01 00 01 00 82 
00 07 8c 00 63 0a 5b 00 00 00 00 01 00 01 00 82 
00 07 92 00 63 0a 5b 00 00 00 00 01 00 01 00 82 
00 07 a8 00 63 0a 5b 00 00 00 00 01 00 01 00 82 
00 07 78 00 63 0a 5b 00 00 00 00 01 00 01 00 82 
00 07 4d 00 63 0a 5b 00 00 00 00 01 00 01 00 82 
00 07 65 00 63 0a 5b 00 00 00 00 01 00 01 00 82 
00 07 47 00 63 0a 5b 00 00 00 00 01 00 01 00 82 
00 07 62 00 63 0a 5b 00 00 00 00 01 00 01 00 82 
00 07 5c 00 63 0a 5b 00 00 00 00 01 00 01 00 82 
00 07 3c 00 63 0a 5b 00 00 00 00 01 00 01 00 82 
00 07 48 00 63 0a 5b 00 00 00 00 01 00 01 00 82 
00 07 54 00 63 0a 5b 00 00 00 00 01 00 01 00 82 
00 07 56 00 63 0a 5b 00 00 00 00 01 00 01 00 82 
00 07 61 00 63 0a 5b 00 00 00 00 01 00 01 00 82 
00 07 45 00 63 0a 5b 00 00 00 00 01 00 01 00 82 
00 07 44 00 63 0a 5b 00 00 00 00 01 00 01 00 82 
00 07 34 00 63 0a 5b 00 00 00 00 01 00 01 00 82 
00 07 46 00 63 0a 5b 00 00 00 00 01 00 01 00 82 
00 07 52 00 63 0a 5b 00 00 00 00 01 00 01 00 82 
00 07 3f 00 63 0a 5b 00 00 00 00 01 00 01 00 82 
00 07 43 00 63 0a 5b 00 00 00 00 01 00 01 00 82 
00 07 30 00 63 0a 5b 00 00 00 00 01 00 01 00 82 
00 07 58 00 63 0a 5b 00 00 00 00 01 00 01 00 82 
00 07 78 00 63 0a 5b 00 00 00 00 01 00 01 00 82 
00 07 3e 00 63 0a 5b 00 00 00 00 01 00 01 00 82 
00 07 48 00 63 0a 5b 00 00 00 00 01 00 01 00 82 
00 07 80 00 63 0a 5b 00 00 00 00 01 00 01 00 82 
00 07 34 00 63 0a 5b 00 00 00 00 01 00 01 00 82 
00 07 94 00 63 0a 5b 00 00 00 00 01 00 01 00 82 
00 07 4a 00 63 0a 5b 00 00 00 00 01 00 01 00 82 
00 07 95 00 63 0a 5b 00 00 00 00 01 00 01 00 82 
00 07 63 00 63 0a 5b 00 00 00 00 01 00 01 00 82 
00 07 7c 00 63 0a 5b 00 00 00 00 01 00 01 00 82 
00 07 74 00 63 0a 5b 00 00 00 00 01 00 01 00 82 
00 07 3f 00 63 0a 5b 00 00 00 00 01 00 01 00 82 
00 07 30 00 63 0a 5b 00 00 00 00 01 00 01 00 82 
00 07 57 00 63 0a 5b 00 00 00 00 01 00 01 00 82 
00 07 4f 00 63 0a 5b 00 00 00 00 01 00 01 00 82 
00 07 16 00 63 0a 5b 00 00 00 00 01 00 01 00 82 
00 07 13 00 63 0a 5b 00 00 00 00 01 00 01 00 82 
00 07 23 00 63 0a 5b 00 00 00 00 01 00 01 00 82 
00 07 44 00 63 0a 5b 00 00 00 00 01 00 01 00 82 
00 07 34 00 63 0a 5b 00 00 00 00 01 00 01 00 82 
00 07 2c 00 63 0a 5b 00 00 00 00 01 00 01 00 82 
00 07 41 00 63 0a 5b 00 00 00 00 01 00 01 00 82 
00 07 30 00 63 0a 5b 00 00 00 00 01 00 01 00 82 
00 07 3f 00 63 0a 5b 00 00 00 00 01 00 01 00 82 
00 07 7c 00 63 0a 5b 00 00 00 00 01 00 01 00 82 
00 07 3c 00 63 0a 5b 00 00 00 00 01 00 01 00 82 
00 07 30 00 63 0a 5b 00 00 00 00 01 00 01 00 82 
00 07 25 00 63 0a 5b 00 00 00 00 01 00 01 00 82 
00 06 f4 00 63 0a 5b 00 00 00 00 01 00 01 00 82 
00 07 16 00 63 0a 5b 00 00 00 00 01 00 01 00 82 
00 07 23 00 63 0a 5b 00 00 00 00 01 00 01 00 82 
00 07 04 00 63 0a 5b 00 00 00 00 01 00 01 00 82 
00 07 25 00 63 0a 5b 00 00 00 00 01 00 01 00 82 
00 07 38 00 63 0a 5b 00 00 00 00 01 00 01 00 82 
00 07 5a 00 63 0a 5b 00 00 00 00 01 00 01 00 82 
00 07 6c 00 63 0a 5b 00 00 00 00 01 00 01 00 82 
00 07 55 00 63 0a 5b 00 00 00 00 01 00 01 00 82 
00 07 82 00 63 0a 5b 00 00 00 00 01 00 01 00 82 
00 07 62 00 63 0a 5b 00 00 00 00 01 00 01 00 82 
00 07 54 00 63 0a 5b 00 00 00 00 01 00 01 00 82 
00 07 59 00 63 0a 5b 00 00 00 00 01 00 01 00 82 
00 07 49 00 63 0a 5b 00 00 00 00 01 00 01 00 82 
00 07 66 00 63 0a 5b 00 00 00 00 01 00 01 00 82 
00 07 26 00 63 0a 5b 00 00 00 00 01 00 01 00 82 
00 07 49 00 63 0a 5b 00 00 00 00 01 00 01 00 82 
00 07 3e 00 63 0a 5b 00 00 00 00 01 00 01 00 82 
00 07 66 00 63 0a 5b 00 00 00 00 01 00 01 00 82 
00 07 5f 00 63 0a 5b 00 00 00 00 01 00 01 00 82 
00 07 73 00 63 0a 5b 00 00 00 00 01 00 01 00 82 
00 07 60 00 63 0a 5b 00 00 00 00 01 00 01 00 82 
00 07 5c 00 63 0a 5b 00 00 00 00 01 00 01 00 82 
00 07 58 00 63 0a 5b 00 00 00 00 01 00 01 00 82 
00 07 74 00 63 0a 5b 00 00 00 00 01 00 01 00 82 
00 07 69 00 63 0a 5b 00 00 00 00 01 00 01 00 82 
00 07 59 00 63 0a 5b 00 00 00 00 01 00 01 00 82 
00 07 73 00 63 0a 5b 00 00 00 00 01 00 01 00 82 
00 07 79 00 63 0a 5b 00 00 00 00 01 00 01 00 82 
00 07 43 00 63 0a 5b 00 00 00 00 01 00 01 00 82 
00 07 7a 00 63 0a 5b 00 00 00 00 01 00 01 00 82 
00 07 4b 00 63 0a 5b 00 00 00 00 01 00 01 00 82 
00 07 62 00 63 0a 5b 00 00 00 00 01 00 01 00 82 
00 07 7d 00 63 0a 5b 00 00 00 00 01 00 01 00 82 
00 07 41 00 63 0a 5b 00 00 00 00 01 00 01 00 82 
00 07 85 00 63 0a 5b 00 00 00 00 01 00 01 00 82 
00 07 68 00 63 0a 5b 00 00 00 00 01 00 01 00 82 
00 07 3b 00 63 0a 5b 00 00 00 00 01 00 01 00 82 
00 07 51 00 63 0a 5b 00 00 00 00 01 00 01 00 82 
00 07 89 00 63 0a 5b 00 00 00 00 01 00 01 00 82 
00 07 9e 00 63 0a 5b 00 00 00 00 01 00 01 00 82 
00 07 92 00 63 0a 5b 00 00 00 00 01 00 01 00 82 
00 07 84 00 63 0a 5b 00 00 00 00 01 00 01 00 82 
00 07 6e 00 63 0a 5b 00 00 00 00 01 00 01 00 82 
00 07 ab 00 63 0a 5b 00 00 00 00 01 00 01 00 82 
00 07 72 00 63 0a 5b 00 00 00 00 01 00 01 00 82 
00 07 6e 00 63 0a 5b 00 00 00 00 01 00 01 00 82 
00 07 8d 00 63 0a 5b 00 00 00 00 01 00 01 00 82 
00 07 ad 00 63 0a 5b 00 00 00 00 01 00 01 00 82 
00 07 84 00 63 0a 5b 00 00 00 00 01 00 01 00 82 
00 07 a3 00 63 0a 5b 00 00 00 00 01 00 01 00 82 
00 07 73 00 63 0a 5b 00 00 00 00 01 00 01 00 82 
00 07 b9 00 63 0a 5b 00 00 00 00 01 00 01 00 82 
00 07 9d 00 63 0a 5b 00 00 00 00 01 00 01 00 82 
00 07 be 00 63 0a 5b 00 00 00 00 01 00 01 00 82 
00 07 e0 00 63 0a 5b 00 00 00 00 01 00 01 00 82 
00 07 d7 00 63 0a 5b 00 00 00 00 01 00 01 00 82 
00 07 85 00 63 0a 5b 00 00 00 00 01 00 01 00 82 
00 07 a4 00 63 0a 5b 00 00 00 00 01 00 01 00 82 
00 07 a2 00 63 0a 5b 00 00 00 00 01 00 01 00 82 
00 07 67 00 63 0a 5b 00 00 00 00 01 00 01 00 82 
00 07 a7 00 63 0a 5b 00 00 00 00 01 00 01 00 82 
00 07 7f 00 63 0a 5b 00 00 00 00 01 00 01 00 82 
00 07 89 00 63 0a 5b 00 00 00 00 01 00 01 00 82 
00 07 67 00 63 0a 5b 00 00 00 00 01 00 01 00 82 
00 07 89 00 63 0a 5b 00 00 00 00 01 00 01 00 82 
00 07 7d 00 63 0a 5b 00 00 00 00 01 00 01 00 82 
00 07 7e 00 63 0a 5b 00 00 00 00 01 00 01 00 82 
00 07 65 00 63 0a 5b 00 00 00 00 01 00 01 00 82 
00 07 88 00 63 0a 5b 00 00 00 00 01 00 01 00 82 
00 07 72 00 63 0a 5b 00 00 00 00 01 00 01 00 82 
00 07 a4 00 63 0a 5b 00 00 00 00 01 00 01 00 82 
00 07 97 00 63 0a 5b 00 00 00 00 01 00 01 00 82 
00 07 bb 00 63 0a 5b 00 00 00 00 01 00 01 00 82 
00 07 95 00 63 0a 5b 00 00 00 00 01 00 01 00 82 
00 07 a1 00 63 0a 5b 00 00 00 00 01 00 01 00 82 
00 07 7d 00 63 0a 5b 00 00 00 00 01 00 01 00 82 
00 07 7b 00 63 0a 5b 00 00 00 00 01 00 01 00 82 
00 07 b1 00 63 0a 5b 00 00 00 00 01 00 01 00 82 
00 07 57 00 63 0a 5b 00 00 00 00 01 00 01 00 82 
00 07 a4 00 63 0a 5b 00 00 00 00 01 00 01 00 82 
00 07 a6 00 63 0a 5b 00 00 00 00 01 00 01 00 82 
00 07 81 00 63 0a 5b 00 00 00 00 01 00 01 00 82 
00 07 ac 00 63 0a 5b 00 00 00 00 01 00 01 00 82 
00 07 b0 00 63 0a 5b 00 00 00 00 01 00 01 00 82 
00 07 81 00 63 0a 5b 00 00 00 00 01 00 01 00 82 
00 07 85 00 63 0a 5b 00 00 00 00 01 00 01 00 82 
00 07 85 00 63 0a 5b 00 00 00 00 01 00 01 00 82 
00 07 65 00 63 0a 5b 00 00 00 00 01 00 01 00 82 
00 07 c4 00 63 0a 5b 00 00 00 00 01 00 01 00 82 
00 07 a8 00 63 0a 5b 00 00 00 00 01 00 01 00 82 
00 07 6d 00 63 0a 5b 00 00 00 00 01 00 01 00 82 
00 07 a7 00 63 0a 5b 00 00 00 00 01 00 01 00 82 
00 07 ac 00 63 0a 5b 00 00 00 00 01 00 01 00 82 
00 07 b9 00 63 0a 5b 00 00 00 00 01 00 01 00 82 
00 07 c8 00 63 0a 5b 00 00 00 00 01 00 01 00 82 
00 07 e2 00 63 0a 5b 00 00 00 00 01 00 01 00 82 
00 07 ab 00 63 0a 5b 00 00 00 00 01 00 01 00 82 
00 07 7a 00 63 0a 5b 00 00 00 00 01 00 01 00 82 
00 07 a5 00 63 0a 5b 00 00 00 00 01 00 01 00 82 
00 07 90 00 63 0a 5b 00 00 00 00 01 00 01 00 82 
00 07 c9 00 63 0a 5b 00 00 00 00 01 00 01 00 82 
00 07 bd 00 63 0a 5b 00 00 00 00 01 00 01 00 82 
00 07 af 00 63 0a 5b 00 00 00 00 01 00 01 00 82 
00 07 a5 00 63 0a 5b 00 00 00 00 01 00 01 00 82 
00 07 69 00 63 0a 5b 00 00 00 00 01 00 01 00 82 
00 07 94 00 63 0a 5b 00 00 00 00 01 00 01 00 82 
00 07 6d 00 63 0a 5b 00 00 00 00 01 00 01 00 82 
00 07 95 00 63 0a 5b 00 00 00 00 01 00 01 00 82 
00 07 78 00 63 0a 5b 00 00 00 00 01 00 01 00 82 
00 07 a3 00 63 0a 5b 00 00 00 00 01 00 01 00 82 
00 07 c8 00 63 0a 5b 00 00 00 00 01 00 01 00 82 
00 07 9e 00 63 0a 5b 00 00 00 00 01 00 01 00 82 
00 07 ad 00 63 0a 5b 00 00 00 00 01 00 01 00 82 
00 07 c2 00 63 0a 5b 00 00 00 00 01 00 01 00 82 
00 07 bc 00 63 0a 5b 00 00 00 00 01 00 01 00 82 
00 07 d0 00 63 0a 5b 00 00 00 00 01 00 01 00 82 
00 07 9e 00 63 0a 5b 00 00 00 00 01 00 01 00 82 
00 07 a0 00 63 0a 5b 00 00 00 00 01 00 01 00 82 
00 07 d8 00 63 0a 5b 00 00 00 00 01 00 01 00 82 
00 07 97 00 63 0a 5b 00 00 00 00 01 00 01 00 82 
00 07 99 00 63 0a 5b 00 00 00 00 01 00 01 00 82 
00 07 66 00 63 0a 5b 00 00 00 00 01 00 01 00 82 
00 07 9e 00 63 0a 5b 00 00 00 00 01 00 01 00 82 
00 07 9f 00 63 0a 5b 00 00 00 00 01 00 01 00 82 
00 07 93 00 63 0a 5b 00 00 00 00 01 00 01 00 82 
00 07 c0 00 63 0a 5b 00 00 00 00 01 00 01 00 82 
00 07 b4 00 63 0a 5b 00 00 00 00 01 00 01 00 82 
00 07 56 00 63 0a 5b 00 00 00 00 01 00 01 00 82 
00 07 93 00 63 0a 5b 00 00 00 00 01 00 01 00 82 
00 07 8d 00 63 0a 5b 00 00 00 00 01 00 01 00 82 
00 07 ca 00 63 0a 5b 00 00 00 00 01 00 01 00 82 
00 07 d8 00 63 0a 5b 00 00 00 00 01 00 01 00 82 
00 07 b0 00 63 0a 5b 00 00 00 00 01 00 01 00 82 
00 07 a4 00 63 0a 5b 00 00 00 00 01 00 01 00 82 
00 07 bd 00 63 0a 5b 00 00 00 00 01 00 01 00 82 
00 07 9f 00 63 0a 5b 00 00 00 00 01 00 01 00 82 
00 07 f3 00 63 0a 5b 00 00 00 00 01 00 01 00 82 
00 07 9a 00 63 0a 5b 00 00 00 00 01 00 01 00 82 
00 07 a2 00 63 0a 5b 00 00 00 00 01 00 01 00 82 
00 07 d1 00 63 0a 5b 00 00 00 00 01 00 01 00 82 
00 07 b0 00 63 0a 5b 00 00 00 00 01 00 01 00 82 
00 07 ca 00 63 0a 5b 00 00 00 00 01 00 01 00 82 
00 07 cf 00 63 0a 5b 00 00 00 00 01 00 01 00 82 
00 07 e1 00 63 0a 5b 00 00 00 00 01 00 01 00 82 
00 07 c2 00 63 0a 5b 00 00 00 00 01 00 01 00 82 
00 07 92 00 63 0a 5b 00 00 00 00 01 00 01 00 82 
00 07 e9 00 63 0a 5b 00 00 00 00 01 00 01 00 82 
00 07 dd 00 63 0a 5b 00 00 00 00 01 00 01 00 82 
00 07 e1 00 63 0a 5b 00 00 00 00 01 00 01 00 82 
00 07 7e 00 63 0a 5b 00 00 00 00 01 00 01 00 82 
00 07 8b 00 63 0a 5b 00 00 00 00 01 00 01 00 82 
00 07 3f 00 63 0a 5b 00 00 00 00 01 00 01 00 82 
00 07 bf 00 63 0a 5b 00 00 00 00 01 00 01 00 82 
00 07 3f 00 63 0a 5b 00 00 00 00 01 00 01 00 82 
00 07 92 00 63 0a 5b 00 00 00 00 01 00 01 00 82 
00 07 89 00 63 0a 5b 00 00 00 00 01 00 01 00 82 
00 07 93 00 63 0a 5b 00 00 00 00 01 00 01 00 82 
00 07 6c 00 63 0a 5b 00 00 00 00 01 00 01 00 82 
00 07 6a 00 63 0a 5b 00 00 00 00 01 00 01 00 82 
00 07 83 00 63 0a 5b 00 00 00 00 01 00 01 00 82 
00 07 a1 00 63 0a 5b 00 00 00 00 01 00 01 00 82 
00 07 80 00 63 0a 5b 00 00 00 00 01 00 01 00 82 
00 07 51 00 63 0a 5b 00 00 00 00 01 00 01 00 82 
00 07 89 00 00 00 00 00 00 01 00 00 63 0a 5b 82 
00 07 96 00 63 0a 5b 00 00 00 00 00 00 01 00 82 
00 07 91 00 63 0a 5b 00 00 00 00 00 00 01 00 82 
00 07 8e 00 63 0a 5b 00 00 00 00 00 00 01 00 82 
00 07 9c 00 63 0a 5b 00 00 00 00 00 00 01 00 82 
00 07 a6 00 63 0a 5b 00 00 00 00 00 00 01 00 82 
00 07 88 00 63 0a 5b 00 00 00 00 00 00 01 00 82 
00 07 71 00 63 0a 5b 00 00 00 00 00 00 01 00 82 
00 07 a7 00 63 0a 5b 00 00 00 00 00 00 01 00 82 
00 07 90 00 63 0a 5b 00 00 00 00 00 00 01 00 82 
00 07 59 00 63 0a 5b 00 00 00 00 00 00 01 00 82 
00 07 db 00 63 0a 5b 00 00 00 00 00 00 01 00 82 
00 07 a8 00 63 0a 5b 00 00 00 00 00 00 01 00 82 
00 07 aa 00 63 0a 5b 00 00 00 00 00 00 01 00 82 
00 07 a6 00 63 0a 5b 00 00 00 00 00 00 01 00 82 
00 07 71 00 63 0a 5b 00 00 00 00 00 00 01 00 82 
00 07 50 00 63 0a 5b 00 00 00 00 00 00 01 00 82 
00 07 c3 00 63 0a 5b 00 00 00 00 00 00 01 00 82 
00 07 7e 00 63 0a 5b 00 00 00 00 00 00 01 00 82 
00 07 b5 00 63 0a 5b 00 00 00 00 00 00 01 00 82 
00 07 5e 00 63 0a 5b 00 00 00 00 00 00 01 00 82 
00 07 61 00 63 0a 5b 00 00 00 00 00 00 01 00 82 
00 07 9e 00 63 0a 5b 00 00 00 00 00 00 01 00 82 
00 07 d2 00 63 0a 5b 00 00 00 00 00 00 01 00 82 
00 07 9e 00 63 0a 5b 00 00 00 00 00 00 01 00 82 
00 07 78 00 63 0a 5b 00 00 00 00 00 00 01 00 82 
00 07 d5 00 63 0a 5b 00 00 00 00 00 00 01 00 82 
00 07 d2 00 63 0a 5b 00 00 00 00 00 00 01 00 82 
00 07 bf 00 63 0a 5b 00 00 00 00 00 00 01 00 82 
00 07 a0 00 63 0a 5b 00 00 00 00 00 00 01 00 82 
00 07 81 00 63 0a 5b 00 00 00 00 00 00 01 00 82 
00 07 a1 00 63 0a 5b 00 00 00 00 00 00 01 00 82 
00 07 86 00 63 0a 5b 00 00 00 00 00 00 01 00 82 
00 07 be 00 63 0a 5b 00 00 00 00 00 00 01 00 82 
00 07 92 00 63 0a 5b 00 00 00 00 00 00 01 00 82 
00 07 bc 00 63 0a 5b 00 00 00 00 00 00 01 00 82 
00 07 9f 00 63 0a 5b 00 00 00 00 00 00 01 00 82 
00 07 a5 00 63 0a 5b 00 00 00 00 00 00 01 00 82 
00 07 6f 00 63 0a 5b 00 00 00 00 00 00 01 00 82 
00 07 a4 00 63 0a 5b 00 00 00 00 00 00 01 00 82 
00 07 c8 00 63 0a 5b 00 00 00 00 00 00 01 00 82 
00 07 af 00 63 0a 5b 00 00 00 00 00 00 01 00 82 
00 07 a7 00 63 0a 5b 00 00 00 00 00 00 01 00 82 
00 07 c6 00 63 0a 5b 00 00 00 00 00 00 01 00 82 
00 07 9a 00 63 0a 5b 00 00 00 00 00 00 01 00 82 
00 07 8b 00 63 0a 5b 00 00 00 00 00 00 01 00 82 
00 07 b1 00 63 0a 5b 00 00 00 00 00 00 01 00 82 
00 07 e9 00 63 0a 5b 00 00 00 00 00 00 01 00 82 
00 07 a0 00 63 0a 5b 00 00 00 00 00 00 01 00 82 
00 07 c2 00 63 0a 5b 00 00 00 00 00 00 01 00 82 
00 07 81 00 63 0a 5b 00 00 00 00 00 00 01 00 82 
00 07 a3 00 63 0a 5b 00 00 00 00 00 00 01 00 82 
00 07 a6 00 63 0a 5b 00 00 00 00 00 00 01 00 82 
00 07 66 00 63 0a 5b 00 00 00 00 00 00 01 00 82 
00 07 3d 00 63 0a 5b 00 00 00 00 00 00 01 00 82 
00 07 7c 00 63 0a 5b 00 00 00 00 00 00 01 00 82 
00 07 52 00 63 0a 5b 00 00 00 00 00 00 01 00 82 
00 07 92 00 63 0a 5b 00 00 00 00 00 00 01 00 82 
00 07 93 00 63 0a 5b 00 00 00 00 00 00 01 00 82 
00 07 84 00 63 0a 5b 00 00 00 00 00 00 01 00 82 
00 07 28 00 63 0a 5b 00 00 00 00 00 00 01 00 82 
00 07 9d 00 63 0a 5b 00 00 00 00 00 00 01 00 82 
00 07 8b 00 63 0a 5b 00 00 00 00 00 00 01 00 82 
00 07 a2 00 63 0a 5b 00 00 00 00 00 00 01 00 82 
00 07 90 00 63 0a 5b 00 00 00 00 00 00 01 00 82 
00 07 8f 00 63 0a 5b 00 00 00 00 00 00 01 00 82 
00 07 66 00 63 0a 5b 00 00 00 00 00 00 01 00 82 
00 07 82 00 63 0a 5b 00 00 00 00 00 00 01 00 82 
00 07 6c 00 63 0a 5b 00 00 00 00 00 00 01 00 82 
00 07 69 00 63 0a 5b 00 00 00 00 00 00 01 00 82 
00 07 a8 00 63 0a 5b 00 00 00 00 00 00 01 00 82 
00 07 9c 00 63 0a 5b 00 00 00 00 00 00 01 00 82 
00 07 89 00 63 0a 5b 00 00 00 00 00 00 01 00 82 
00 07 ac 00 63 0a 5b 00 00 00 00 00 00 01 00 82 
00 07 9f 00 63 0a 5b 00 00 00 00 00 00 01 00 82 
00 07 7d 00 63 0a 5b 00 00 00 00 00 00 01 00 82 
00 07 8c 00 63 0a 5b 00 00 00 00 00 00 01 00 82 
00 07 7e 00 63 0a 5b 00 00 00 00 00 00 01 00 82 
00 07 7d 00 63 0a 5b 00 00 00 00 00 00 01 00 82 
00 07 8a 00 63 0a 5b 00 00 00 00 00 00 01 00 82 
00 07 99 00 63 0a 5b 00 00 00 00 00 00 01 00 82 
00 07 74 00 63 0a 5b 00 00 00 00 00 00 01 00 82 
00 07 7d 00 63 0a 5b 00 00 00 00 00 00 01 00 82 
00 07 89 00 63 0a 5b 00 00 00 00 00 00 01 00 82 
00 07 5c 00 63 0a 5b 00 00 00 00 00 00 01 00 82 
00 07 7c 00 63 0a 5b 00 00 00 00 00 00 01 00 82 
00 07 77 00 63 0a 5b 00 00 00 00 00 00 01 00 82 
00 07 5f 00 63 0a 5b 00 00 00 00 00 00 01 00 82 
00 07 6d 00 63 0a 5b 00 00 00 00 00 00 01 00 82 
00 07 85 00 63 0a 5b 00 00 00 00 00 00 01 00 82 
00 07 b0 00 63 0a 5b 00 00 00 00 00 00 01 00 82 
00 07 72 00 63 0a 5b 00 00 00 00 00 00 01 00 82 
00 07 35 00 63 0a 5b 00 00 00 00 00 00 01 00 82 
00 07 30 00 63 0a 5b 00 00 00 00 00 00 01 00 82 
00 07 7b 00 63 0a 5b 00 00 00 00 00 00 01 00 82 
00 07 83 00 63 0a 5b 00 00 00 00 00 00 01 00 82 
00 07 89 00 63 0a 5b 00 00 00 00 00 00 01 00 82 
00 07 a1 00 63 0a 5b 00 00 00 00 00 00 01 00 82 
00 07 60 00 63 0a 5b 00 00 00 00 00 00 01 00 82 
00 07 67 00 63 0a 5b 00 00 00 00 00 00 01 00 82 
00 07 5e 00 63 0a 5b 00 00 00 00 00 00 01 00 82 
00 07 6a 00 63 0a 5b 00 00 00 00 00 00 01 00 82 
00 07 63 00 63 0a 5b 00 00 00 00 00 00 01 00 82 
00 07 70 00 63 0a 5b 00 00 00 00 00 00 01 00 82 
00 07 66 00 63 0a 5b 00 00 00 00 00 00 01 00 82 
00 07 6f 00 63 0a 5b 00 00 00 00 00 00 01 00 82 
00 07 86 00 63 0a 5b 00 00 00 00 00 00 01 00 82 
00 07 58 00 63 0a 5b 00 00 00 00 00 00 01 00 82 
00 07 3e 00 63 0a 5b 00 00 00 00 00 00 01 00 82 
00 07 54 00 63 0a 5b 00 00 00 00 00 00 01 00 82 
00 07 47 00 63 0a 5b 00 00 00 00 00 00 01 00 82 
00 07 44 00 63 0a 5b 00 00 00 00 00 00 01 00 82 
00 07 2f 00 63 0a 5b 00 00 00 00 00 00 01 00 82 
00 07 52 00 63 0a 5b 00 00 00 00 00 00 01 00 82 
00 07 50 00 63 0a 5b 00 00 00 00 00 00 01 00 82 
00 07 6b 00 63 0a 5b 00 00 00 00 00 00 01 00 82 
00 07 18 00 63 0a 5b 00 00 00 00 00 00 01 00 82 
00 07 48 00 63 0a 5b 00 00 00 00 00 00 01 00 82 
00 07 59 00 63 0a 5b 00 00 00 00 00 00 01 00 82 
00 07 50 00 63 0a 5b 00 00 00 00 00 00 01 00 82 
00 07 80 00 63 0a 5b 00 00 00 00 00 00 01 00 82 
00 07 78 00 63 0a 5b 00 00 00 00 00 00 01 00 82 
00 07 6d 00 63 0a 5b 00 00 00 00 00 00 01 00 82 
00 07 5e 00 63 0a 5b 00 00 00 00 00 00 01 00 82 
00 07 56 00 63 0a 5b 00 00 00 00 00 00 01 00 82 
00 07 62 00 63 0a 5b 00 00 00 00 00 00 01 00 82 
00 07 68 00 63 0a 5b 00 00 00 00 00 00 01 00 82 
00 07 7c 00 63 0a 5b 00 00 00 00 00 00 01 00 82 
00 07 5c 00 63 0a 5b 00 00 00 00 00 00 01 00 82 
00 07 33 00 63 0a 5b 00 00 00 00 00 00 01 00 82 
00 07 26 00 63 0a 5b 00 00 00 00 00 00 01 00 82 
00 07 6e 10 63 00 00 00 00 10 00 5b 25 00 00 82 
00 07 47 00 00 fa 44 00 00 59 25 00 00 00 00 82 
00 07 59 00 00 fa 44 00 00 59 25 00 00 00 00 82 
00 07 9b 00 00 fa 44 00 00 59 25 00 00 00 00 82 
00 07 60 00 00 fa 44 00 00 59 25 00 00 00 00 82 
00 07 77 00 00 fa 44 00 00 59 25 00 00 00 00 82 
00 07 78 00 00 fa 44 00 00 59 25 00 00 00 00 82 
00 07 9e 00 00 fa 44 00 00 59 25 00 00 00 00 82 
00 07 5f 00 00 fa 44 00 00 59 25 00 00 00 00 82 
00 07 95 00 00 fa 44 00 00 59 25 00 00 00 00 82 
00 07 43 00 00 fa 44 00 00 59 25 00 00 00 00 82 
00 07 78 00 00 fa 44 00 00 59 25 00 00 00 00 82 
00 07 47 00 00 fa 44 00 00 59 25 00 00 00 00 82 
00 07 77 00 00 fa 44 00 00 59 25 00 00 00 00 82 
00 07 51 00 00 fa 44 00 00 59 25 00 00 00 00 82 
00 07 4e 00 00 fa 44 00 00 59 25 00 00 00 00 82 
00 07 6b 00 00 fa 44 00 00 59 25 00 00 00 00 82 
00 07 71 00 00 fa 44 00 00 59 25 00 00 00 00 82 
00 07 5c 00 00 fa 44 00 00 59 25 00 00 00 00 82 
00 07 8c 00 00 fa 44 00 00 59 25 00 00 00 00 82 
00 07 94 00 00 fa 44 00 00 59 25 00 00 00 00 82 
00 07 2a 00 00 fa 44 00 00 59 25 00 00 00 00 82 
00 07 7a 00 00 fa 44 00 00 59 25 00 00 00 00 82 
00 07 60 00 00 fa 44 00 00 59 25 00 00 00 00 82 
00 07 95 00 00 fa 44 00 00 59 25 00 00 00 00 82 
00 07 91 00 00 fa 44 00 00 59 25 00 00 00 00 82 
00 07 52 00 00 fa 44 00 00 59 25 00 00 00 00 82 
00 07 5b 00 00 fa 44 00 00 59 25 00 00 00 00 82 
00 07 5d 00 00 fa 44 00 00 59 25 00 00 00 00 82 
00 07 4e 00 00 fa 44 00 00 59 25 00 00 00 00 82 
00 07 4d 00 00 fa 44 00 00 59 25 00 00 00 00 82 
00 07 46 00 00 fa 44 00 00 59 25 00 00 00 00 82 
00 07 6b 00 00 fa 44 00 00 59 25 00 00 00 00 82 
00 07 5a 00 00 fa 44 00 00 59 25 00 00 00 00 82 
00 07 6d 00 00 fa 44 00 00 59 25 00 00 00 00 82 
00 07 44 00 00 fa 44 00 00 59 25 00 00 00 00 82 
00 07 63 00 00 fa 44 00 00 59 25 00 00 00 00 82 
00 07 8d 00 00 fa 44 00 00 59 25 00 00 00 00 82 
00 07 7c 00 00 fa 44 00 00 59 25 00 00 00 00 82 
00 07 41 00 00 fa 44 00 00 59 25 00 00 00 00 82 
00 07 68 00 00 fa 44 00 00 59 25 00 00 00 00 82 
00 07 6a 00 00 fa 44 00 00 59 25 00 00 00 00 82 
00 07 61 00 00 fa 44 00 00 59 25 00 00 00 00 82 
00 07 5b 00 00 fa 44 00 00 59 25 00 00 00 00 82 
00 07 74 00 00 fa 44 00 00 59 25 00 00 00 00 82 
00 07 30 00 00 fa 44 00 00 59 25 00 00 00 00 82 
00 07 73 00 00 fa 44 00 00 59 25 00 00 00 00 82 
00 07 7c 00 00 fa 44 00 00 59 25 00 00 00 00 82 
00 07 58 00 00 fa 44 00 00 59 25 00 00 00 00 82 
00 07 7e 00 00 fa 44 00 00 59 25 00 00 00 00 82 
00 07 84 00 00 fa 44 00 00 59 25 00 00 00 00 82 
00 07 60 00 00 fa 44 00 00 59 25 00 00 00 00 82 
00 07 4c 00 00 fa 44 00 00 59 25 00 00 00 00 82 
00 07 71 00 00 fa 44 00 00 59 25 00 00 00 00 82 
00 07 68 00 00 fa 44 00 00 59 25 00 00 00 00 82 
00 07 85 00 00 fa 44 00 00 59 25 00 00 00 00 82 
00 07 b3 00 00 fa 44 00 00 59 25 00 00 00 00 82 
00 07 8b 00 00 fa 44 00 00 59 25 00 00 00 00 82 
00 07 9e 00 00 fa 44 00 00 59 25 00 00 00 00 82 
00 07 65 00 00 fa 44 00 00 59 25 00 00 00 00 82 
00 07 74 00 00 fa 44 00 00 59 25 00 00 00 00 82 
00 07 ae 00 00 fa 44 00 00 59 25 00 00 00 00 82 
00 07 77 00 00 fa 44 00 00 59 25 00 00 00 00 82 
00 07 6b 00 00 fa 44 00 00 59 25 00 00 00 00 82 
00 07 9d 00 00 fa 44 00 00 59 25 00 00 00 00 82 
00 07 77 00 00 fa 44 00 00 59 25 00 00 00 00 82 
00 07 85 00 00 fa 44 00 00 59 25 00 00 00 00 82 
00 07 36 00 00 fa 44 00 00 59 25 00 00 00 00 82 
00 07 83 00 00 fa 44 00 00 59 25 00 00 00 00 82 
00 07 81 00 00 fa 44 00 00 59 25 00 00 00 00 82 
00 07 77 00 00 fa 44 00 00 59 25 00 00 00 00 82 
00 07 6b 00 00 fa 44 00 00 59 25 00 00 00 00 82 
00 07 4d 00 00 fa 44 00 00 59 25 00 00 00 00 82 
00 07 78 00 00 fa 44 00 00 59 25 00 00 00 00 82 
00 07 95 00 00 fa 44 00 00 59 25 00 00 00 00 82 
00 07 9f 00 00 fa 44 00 00 59 25 00 00 00 00 82 
00 07 5e 00 00 fa 44 00 00 59 25 00 00 00 00 82 
00 07 79 00 00 fa 44 00 00 59 25 00 00 00 00 82 
00 07 a3 00 00 fa 44 00 00 59 25 00 00 00 00 82 
00 07 85 00 00 fa 44 00 00 59 25 00 00 00 00 82 
00 07 be 00 00 fa 44 00 00 59 25 00 00 00 00 82 
00 07 8f 00 00 fa 44 00 00 59 25 00 00 00 00 82 
00 07 85 00 00 fa 44 00 00 59 25 00 00 00 00 82 
00 07 e6 00 00 fa 44 00 00 59 25 00 00 00 00 82 
00 07 89 00 00 fa 44 00 00 59 25 00 00 00 00 82 
00 07 74 00 00 fa 44 00 00 59 25 00 00 00 00 82 
00 07 59 00 00 fa 44 00 00 59 25 00 00 00 00 82 
00 07 8b 00 00 fa 44 00 00 59 25 00 00 00 00 82 
00 07 63 00 00 fa 44 00 00 59 25 00 00 00 00 82 
00 07 7d 00 00 fa 44 00 00 59 25 00 00 00 00 82 
00 07 aa 00 00 fa 44 00 00 59 25 00 00 00 00 82 
00 07 97 00 00 fa 44 00 00 59 25 00 00 00 00 82 
00 07 6f 00 00 fa 44 00 00 59 25 00 00 00 00 82 
00 07 56 00 00 fa 44 00 00 59 25 00 00 00 00 82 
00 07 7b 00 00 fa 44 00 00 59 25 00 00 00 00 82 
00 07 8a 00 00 fa 44 00 00 59 25 00 00 00 00 82 
00 07 9b 00 00 fa 44 00 00 59 25 00 00 00 00 82 
00 07 7b 00 00 fa 44 00 00 59 25 00 00 00 00 82 
00 07 93 00 00 fa 44 00 00 59 25 00 00 00 00 82 
00 07 6e 00 00 fa 44 00 00 59 25 00 00 00 00 82 
00 07 97 00 00 fa 44 00 00 59 25 00 00 00 00 82 
00 07 a2 00 00 fa 44 00 00 59 25 00 00 00 00 82 
00 07 ab 00 00 fa 44 00 00 59 25 00 00 00 00 82 
00 07 67 00 00 fa 44 00 00 59 25 00 00 00 00 82 
00 07 68 00 00 fa 44 00 00 59 25 00 00 00 00 82 
00 07 9e 00 00 fa 44 00 00 59 25 00 00 00 00 82 
00 07 8e 00 00 fa 44 00 00 59 25 00 00 00 00 82 
00 07 9f 00 00 fa 44 00 00 59 25 00 00 00 00 82 
00 07 70 00 00 fa 44 00 00 59 25 00 00 00 00 82 
00 07 6b 00 00 fa 44 00 00 59 25 00 00 00 00 82 
00 07 97 00 00 fa 44 00 00 59 25 00 00 00 00 82 
00 07 8c 00 00 fa 44 00 00 59 25 00 00 00 00 82 
00 07 6e 00 00 fa 44 00 00 59 25 00 00 00 00 82 
00 07 88 00 00 fa 44 00 00 59 25 00 00 00 00 82 
00 07 95 00 00 fa 44 00 00 59 25 00 00 00 00 82 
00 07 95 00 00 fa 44 00 00 59 25 00 00 00 00 82 
00 07 91 00 00 fa 44 00 00 59 25 00 00 00 00 82 
00 07 49 00 00 fa 44 00 00 59 25 00 00 00 00 82 
00 07 8b 00 00 fa 44 00 00 59 25 00 00 00 00 82 
00 07 be 00 00 fa 44 00 00 59 25 00 00 00 00 82 
00 07 6b 00 00 fa 44 00 00 59 25 00 00 00 00 82 
00 07 72 00 00 fa 44 00 00 59 25 00 00 00 00 82 
00 07 a2 00 00 fa 44 00 00 59 25 00 00 00 00 82 
00 07 8c 00 00 fa 44 00 00 59 25 00 00 00 00 82 
00 07 6b 00 00 fa 44 00 00 59 25 00 00 00 00 82 
00 07 b7 00 00 fa 44 00 00 59 25 00 00 00 00 82 
00 07 68 00 00 fa 44 00 00 59 25 00 00 00 00 82 
00 07 8d 00 00 fa 44 00 00 59 25 00 00 00 00 82 
00 07 7b 00 00 fa 44 00 00 59 25 00 00 00 00 82 
00 07 ca 00 00 fa 44 00 00 59 25 00 00 00 00 82 
00 07 54 00 00 fa 44 00 00 59 25 00 00 00 00 82 
00 07 6f 00 00 fa 44 00 00 59 25 00 00 00 00 82 
00 07 70 00 00 fa 44 00 00 59 25 00 00 00 00 82 
00 07 8e 00 00 fa 44 00 00 59 25 00 00 00 00 82 
00 07 c6 00 00 fa 44 00 00 59 25 00 00 00 00 82 
00 07 6c 00 00 fa 44 00 00 59 25 00 00 00 00 82 
00 07 74 00 00 fa 44 00 00 59 25 00 00 00 00 82 
00 07 45 00 00 fa 44 00 00 59 25 00 00 00 00 82 
00 07 68 00 00 fa 44 00 00 59 25 00 00 00 00 82 
00 07 97 00 00 fa 44 00 00 59 25 00 00 00 00 82 
00 07 85 00 00 fa 44 00 00 59 25 00 00 00 00 82 
00 07 6a 00 00 fa 44 00 00 59 25 00 00 00 00 82 
00 07 a7 00 00 fa 44 00 00 59 25 00 00 00 00 82 
00 07 8a 00 00 fa 44 00 00 59 25 00 00 00 00 82 
00 07 5a 00 00 fa 44 00 00 59 25 00 00 00 00 82 
00 07 92 00 00 fa 44 00 00 59 25 00 00 00 00 82 
00 07 67 00 00 fa 44 00 00 59 25 00 00 00 00 82 
00 07 50 00 00 fa 44 00 00 59 25 00 00 00 00 82 
00 07 55 00 00 fa 44 00 00 59 25 00 00 00 00 82 
00 07 60 00 00 fa 44 00 00 59 25 00 00 00 00 82 
00 07 4c 00 00 fa 44 00 00 59 25 00 00 00 00 82 
00 07 8e 00 00 fa 44 00 00 59 25 00 00 00 00 82 
00 07 5c 00 00 fa 44 00 00 59 25 00 00 00 00 82 
00 07 2c 00 00 fa 44 00 00 59 25 00 00 00 00 82 
00 07 5a 00 00 fa 44 00 00 59 25 00 00 00 00 82 
00 07 4e 00 00 fa 44 00 00 59 25 00 00 00 00 82 
00 07 2c 00 00 fa 44 00 00 59 25 00 00 00 00 82 
00 07 59 00 00 fa 44 00 00 59 25 00 00 00 00 82 
00 07 96 00 00 fa 44 00 00 59 25 00 00 00 00 82 
00 07 91 00 00 fa 44 00 00 59 25 00 00 00 00 82 
00 07 8a 00 00 fa 44 00 00 59 25 00 00 00 00 82 
00 07 86 00 00 fa 44 00 00 59 25 00 00 00 00 82 
00 07 5c 00 00 fa 44 00 00 59 25 00 00 00 00 82 
00 07 62 00 00 fa 44 00 00 59 25 00 00 00 00 82 
00 07 a0 00 00 fa 44 00 00 59 25 00 00 00 00 82 
00 07 6a 00 00 fa 44 00 00 59 25 00 00 00 00 82 
00 07 8a 00 00 fa 44 00 00 59 25 00 00 00 00 82 
00 07 74 00 00 fa 44 00 00 59 25 00 00 00 00 82 
00 07 7a 00 00 fa 44 00 00 59 25 00 00 00 00 82 
00 07 9f 00 00 fa 44 00 00 59 25 00 00 00 00 82 
00 07 8c 00 00 fa 44 00 00 59 25 00 00 00 00 82 
00 07 8e 00 00 fa 44 00 00 59 25 00 00 00 00 82 
00 07 85 00 00 fa 44 00 00 59 25 00 00 00 00 82 
00 07 78 00 00 fa 44 00 00 59 25 00 00 00 00 82 
00 07 7a 00 00 fa 44 00 00 59 25 00 00 00 00 82 
00 07 7f 00 00 fa 44 00 00 59 25 00 00 00 00 82 
00 07 88 00 00 fa 44 00 00 59 25 00 00 00 00 82 
00 07 65 00 00 fa 44 00 00 59 25 00 00 00 00 82 
00 07 78 00 00 fa 44 00 00 59 25 00 00 00 00 82 
00 07 59 00 00 fa 44 00 00 59 25 00 00 00 00 82 
00 07 af 00 00 fa 44 00 00 59 25 00 00 00 00 82 
00 07 7d 00 00 fa 44 00 00 59 25 00 00 00 00 82 
00 07 bc 00 00 fa 44 00 00 59 25 00 00 00 00 82 
00 07 85 00 00 fa 44 00 00 59 25 00 00 00 00 82 
00 07 aa 00 00 fa 44 00 00 59 25 00 00 00 00 82 
00 07 b3 00 00 fa 44 00 00 59 25 00 00 00 00 82 
00 07 85 00 00 fa 44 00 00 59 25 00 00 00 00 82 
00 07 af 00 00 fa 44 00 00 59 25 00 00 00 00 82 
00 07 cf 00 00 fa 44 00 00 59 25 00 00 00 00 82 
00 07 ad 00 00 fa 44 00 00 59 25 00 00 00 00 82 
00 07 af 00 00 fa 44 00 00 59 25 00 00 00 00 82 
00 07 9f 00 00 fa 44 00 00 59 25 00 00 00 00 82 
00 07 99 00 00 fa 44 00 00 59 25 00 00 00 00 82 
00 07 77 00 00 fa 44 00 00 59 25 00 00 00 00 82 
00 07 92 00 00 fa 44 00 00 59 25 00 00 00 00 82 
00 07 b0 00 00 fa 44 00 00 59 25 00 00 00 00 82 
00 07 4f 00 00 fa 44 00 00 59 25 00 00 00 00 82 
00 07 ad 00 00 fa 44 00 00 59 25 00 00 00 00 82 
00 07 6c 00 00 fa 44 00 00 59 25 00 00 00 00 82 
00 07 81 00 00 fa 44 00 00 59 25 00 00 00 00 82 
00 07 99 00 00 fa 44 00 00 59 25 00 00 00 00 82 
00 07 b2 00 00 fa 44 00 00 59 25 00 00 00 00 82 
00 07 d3 00 00 fa 44 00 00 59 25 00 00 00 00 82 
00 07 bd 00 00 fa 44 00 00 59 25 00 00 00 00 82 
00 07 b4 00 00 fa 44 00 00 59 25 00 00 00 00 82 
00 07 d7 00 00 fa 44 00 00 59 25 00 00 00 00 82 
00 07 b4 00 00 fa 44 00 00 59 25 00 00 00 00 82 
00 07 b9 00 00 fa 44 00 00 59 25 00 00 00 00 82 
00 07 b0 00 00 fa 44 00 00 59 25 00 00 00 00 82 
00 07 be 00 00 fa 44 00 00 59 25 00 00 00 00 82 
00 07 b0 00 00 fa 44 00 00 59 25 00 00 00 00 82 
00 07 f9 00 00 fa 44 00 00 59 25 00 00 00 00 82 
00 07 b8 00 00 fa 44 00 00 59 25 00 00 00 00 82 
00 07 bb 00 00 fa 44 00 00 59 25 00 00 00 00 82 
00 07 b6 00 00 fa 44 00 00 59 25 00 00 00 00 82 
00 07 c4 00 00 fa 44 00 00 59 25 00 00 00 00 82 
00 07 83 00 00 fa 44 00 00 59 25 00 00 00 00 82 
00 07 80 00 00 fa 44 00 00 59 25 00 00 00 00 82 
00 07 9b 00 00 fa 44 00 00 59 25 00 00 00 00 82 
00 07 95 00 00 fa 44 00 00 59 25 00 00 00 00 82 
00 07 9c 00 00 fa 44 00 00 59 25 00 00 00 00 82 
00 07 c0 00 00 fa 44 00 00 59 25 00 00 00 00 82 
00 07 9b 00 00 fa 44 00 00 59 25 00 00 00 00 82 
00 07 89 00 00 fa 44 00 00 59 25 00 00 00 00 82 
00 07 ad 00 00 fa 44 00 00 59 25 00 00 00 00 82 
00 07 96 00 00 fa 44 00 00 59 25 00 00 00 00 82 
00 07 91 00 00 fa 44 00 00 59 25 00 00 00 00 82 
00 07 81 00 00 fa 44 00 00 59 25 00 00 00 00 82 
00 07 97 00 00 fa 44 00 00 59 25 00 00 00 00 82 
00 07 78 00 00 fa 44 00 00 59 25 00 00 00 00 82 
00 08 05 00 00 fa 44 00 00 59 25 00 00 00 00 82 
00 07 b4 00 00 fa 44 00 00 59 25 00 00 00 00 82 
00 07 9d 00 00 fa 44 00 00 59 25 00 00 00 00 82 
00 07 c8 00 00 fa 44 00 00 59 25 00 00 00 00 82 
00 07 b5 00 00 fa 44 00 00 59 25 00 00 00 00 82 
00 07 83 00 00 fa 44 00 00 59 25 00 00 00 00 82 
00 07 ab 00 00 fa 44 00 00 59 25 00 00 00 00 82 
00 07 a0 00 00 fa 44 00 00 59 25 00 00 00 00 82 
00 07 86 00 00 fa 44 00 00 59 25 00 00 00 00 82 
00 07 a1 00 00 fa 44 00 00 59 25 00 00 00 00 82 
00 07 61 00 00 fa 44 00 00 59 25 00 00 00 00 82 
00 07 6e 00 00 fa 44 00 00 59 25 00 00 00 00 82 
00 07 57 00 00 fa 44 00 00 59 25 00 00 00 00 82 
00 07 93 00 00 fa 44 00 00 59 25 00 00 00 00 82 
00 07 9d 00 00 fa 44 00 00 59 25 00 00 00 00 82 
00 07 a2 00 00 fa 44 00 00 59 25 00 00 00 00 82 
00 07 9d 00 00 fa 44 00 00 59 25 00 00 00 00 82 
00 07 a4 00 00 fa 44 00 00 59 25 00 00 00 00 82 
00 07 80 00 00 fa 44 00 00 59 25 00 00 00 00 82 
00 07 ad 00 00 fa 44 00 00 59 25 00 00 00 00 82 
00 07 b7 00 00 fa 44 00 00 59 25 00 00 00 00 82 
00 07 a0 00 00 fa 44 00 00 59 25 00 00 00 00 82 
00 07 38 00 00 fa 44 00 00 59 25 00 00 00 00 82 
00 07 5d 00 00 fa 44 00 00 59 25 00 00 00 00 82 
00 07 69 00 00 fa 44 00 00 59 25 00 00 00 00 82 
00 07 89 00 00 fa 44 00 00 59 25 00 00 00 00 82 
00 07 6c 00 00 fa 44 00 00 59 25 00 00 00 00 82 
00 07 5f 00 00 fa 44 00 00 59 25 00 00 00 00 82 
00 07 77 00 00 fa 44 00 00 59 25 00 00 00 00 82 
00 07 6f 00 00 fa 44 00 00 59 25 00 00 00 00 82 
00 07 8a 00 00 fa 44 00 00 59 25 00 00 00 00 82 
00 07 5e 00 00 fa 44 00 00 59 25 00 00 00 00 82 
00 07 6b 00 00 fa 44 00 00 59 25 00 00 00 00 82 
00 07 fc 00 00 fa 44 00 00 59 25 00 00 00 00 82 
00 07 b1 00 00 fa 44 00 00 59 25 00 00 00 00 82 
00 07 a6 00 00 fa 44 00 00 59 25 00 00 00 00 82 
00 07 b6 00 00 fa 44 00 00 59 25 00 00 00 00 82 
00 07 ac 00 00 fa 44 00 00 59 25 00 00 00 00 82 
00 07 b3 00 00 fa 44 00 00 59 25 00 00 00 00 82 
00 07 a4 00 00 fa 44 00 00 59 25 00 00 00 00 82 
00 07 95 00 00 fa 44 00 00 59 25 00 00 00 00 82 
00 07 92 00 00 fa 44 00 00 59 25 00 00 00 00 82 
00 07 4f 00 00 fa 44 00 00 59 25 00 00 00 00 82 
00 07 a3 00 00 fa 44 00 00 59 25 00 00 00 00 82 
00 07 67 00 00 fa 44 00 00 59 25 00 00 00 00 82 
00 07 7e 00 00 fa 44 00 00 59 25 00 00 00 00 82 
00 07 7d 00 00 fa 44 00 00 59 25 00 00 00 00 82 
00 07 95 00 00 fa 44 00 00 59 25 00 00 00 00 82 
00 07 ae 00 00 fa 44 00 00 59 25 00 00 00 00 82 
00 07 43 00 00 fa 44 00 00 59 25 00 00 00 00 82 
00 07 c6 00 00 fa 44 00 00 59 25 00 00 00 00 82 
00 07 bc 00 00 fa 44 00 00 59 25 00 00 00 00 82 
00 07 a0 00 00 fa 44 00 00 59 25 00 00 00 00 82 
00 07 96 00 00 fa 44 00 00 59 25 00 00 00 00 82 
00 07 d4 00 00 fa 44 00 00 59 25 00 00 00 00 82 
00 07 af 00 00 fa 44 00 00 59 25 00 00 00 00 82 
00 07 9a 00 00 fa 44 00 00 59 25 00 00 00 00 82 
00 07 84 00 00 fa 44 00 00 59 25 00 00 00 00 82 
00 07 da 00 00 fa 44 00 00 59 25 00 00 00 00 82 
00 07 bc 00 00 fa 44 00 00 59 25 00 00 00 00 82 
00 07 b0 00 00 fa 44 00 00 59 25 00 00 00 00 82 
00 07 49 00 00 fa 44 00 00 59 25 00 00 00 00 82 
00 07 49 00 00 fa 44 00 00 59 25 00 00 00 00 82 
00 07 8a 00 00 fa 44 00 00 59 25 00 00 00 00 82 
00 07 a0 00 00 fa 44 00 00 59 25 00 00 00 00 82 
00 07 96 00 00 fa 44 00 00 59 25 00 00 00 00 82 
00 07 90 00 00 fa 44 00 00 59 25 00 00 00 00 82 
00 07 84 00 00 fa 44 00 00 59 25 00 00 00 00 82 
00 07 9f 00 00 fa 44 00 00 59 25 00 00 00 00 82 
00 07 bd 00 00 fa 44 00 00 59 25 00 00 00 00 82 
00 07 97 00 00 fa 44 00 00 59 25 00 00 00 00 82 
00 07 b7 00 00 fa 44 00 00 59 25 00 00 00 00 82 
00 07 83 00 00 fa 44 00 00 59 25 00 00 00 00 82 
00 07 b3 00 00 fa 44 00 00 59 25 00 00 00 00 82 
00 07 6d 00 00 fa 44 00 00 59 25 00 00 00 00 82 
00 07 95 00 00 fa 44 00 00 59 25 00 00 00 00 82 
00 07 5d 00 00 fa 44 00 00 59 25 00 00 00 00 82 
00 07 66 00 00 fa 44 00 00 59 25 00 00 00 00 82 
00 07 94 00 00 fa 44 00 00 59 25 00 00 00 00 82 
00 07 ab 00 00 fa 44 00 00 59 25 00 00 00 00 82 
00 07 47 00 00 fa 44 00 00 59 25 00 00 00 00 82 
00 07 51 00 00 fa 44 00 00 59 25 00 00 00 00 82 
00 07 5a 00 00 fa 44 00 00 59 25 00 00 00 00 82 
00 07 26 00 00 fa 44 00 00 59 25 00 00 00 00 82 
00 07 6e 00 00 fa 44 00 00 59 25 00 00 00 00 82 
00 07 8b 00 00 fa 44 00 00 59 25 00 00 00 00 82 
00 07 70 00 00 fa 44 00 00 59 25 00 00 00 00 82 
00 07 91 00 00 fa 44 00 00 59 25 00 00 00 00 82 
00 07 68 00 00 fa 44 00 00 59 25 00 00 00 00 82 
00 07 9c 00 00 fa 44 00 00 59 25 00 00 00 00 82 
00 07 7e 00 00 fa 44 00 00 59 25 00 00 00 00 82 
00 07 9f 00 00 fa 44 00 00 59 25 00 00 00 00 82 
00 07 73 00 00 fa 44 00 00 59 25 00 00 00 00 82 
00 07 c8 00 00 fa 44 00 00 59 25 00 00 00 00 82 
00 07 b2 00 00 fa 44 00 00 59 25 00 00 00 00 82 
00 07 6c 00 00 fa 44 00 00 59 25 00 00 00 00 82 
00 07 88 00 00 fa 44 00 00 59 25 00 00 00 00 82 
00 07 9f 00 00 fa 44 00 00 59 25 00 00 00 00 82 
00 07 92 00 00 fa 44 00 00 59 25 00 00 00 00 82 
00 07 61 00 00 fa 44 00 00 59 25 00 00 00 00 82 
00 07 a5 00 00 fa 44 00 00 59 25 00 00 00 00 82 
00 07 8a 00 00 fa 44 00 00 59 25 00 00 00 00 82 
00 07 c2 00 00 fa 44 00 00 59 25 00 00 00 00 82 
00 07 9e 00 00 fa 44 00 00 59 25 00 00 00 00 82 
00 07 73 00 00 fa 44 00 00 59 25 00 00 00 00 82 
00 07 9f 00 00 fa 44 00 00 59 25 00 00 00 00 82 
00 07 91 00 00 fa 44 00 00 59 25 00 00 00 00 82 
00 07 73 00 00 fa 44 00 00 59 25 00 00 00 00 82 
00 07 81 00 00 fa 44 00 00 59 25 00 00 00 00 82 
00 07 b1 00 00 fa 44 00 00 59 25 00 00 00 00 82 
00 07 c5 00 00 fa 44 00 00 59 25 00 00 00 00 82 
00 07 a6 00 00 fa 44 00 00 59 25 00 00 00 00 82 
00 07 d6 00 00 fa 44 00 00 59 25 00 00 00 00 82 
00 07 b0 00 00 fa 44 00 00 59 25 00 00 00 00 82 
00 07 6f 00 00 fa 44 00 00 59 25 00 00 00 00 82 
00 07 8e 00 00 fa 44 00 00 59 25 00 00 00 00 82 
00 07 c9 00 00 fa 44 00 00 59 25 00 00 00 00 82 
00 07 90 00 00 fa 44 00 00 59 25 00 00 00 00 82 
00 07 a1 00 00 fa 44 00 00 59 25 00 00 00 00 82 
00 07 5f 00 00 fa 44 00 00 59 25 00 00 00 00 82 
00 07 a5 00 00 fa 44 00 00 59 25 00 00 00 00 82 
00 07 58 00 00 fa 44 00 00 59 25 00 00 00 00 82 
00 07 9e 00 00 fa 44 00 00 59 25 00 00 00 00 82 
00 07 97 00 00 fa 44 00 00 59 25 00 00 00 00 82 
00 07 6f 00 00 fa 44 00 00 59 25 00 00 00 00 82 
00 07 92 00 00 fa 44 00 00 59 25 00 00 00 00 82 
00 07 bd 00 00 fa 44 00 00 59 25 00 00 00 00 82 
00 07 70 00 00 fa 44 00 00 59 25 00 00 00 00 82 
00 07 93 00 00 fa 44 00 00 59 25 00 00 00 00 82 
00 07 8d 00 00 fa 44 00 00 59 25 00 00 00 00 82 
00 07 86 00 00 fa 44 00 00 59 25 00 00 00 00 82 
00 07 88 00 00 fa 44 00 00 59 25 00 00 00 00 82 
00 07 92 00 00 fa 44 00 00 59 25 00 00 00 00 82 
00 07 6b 00 00 fa 44 00 00 59 25 00 00 00 00 82 
00 07 8a 00 00 fa 44 00 00 59 25 00 00 00 00 82 
00 07 b8 00 00 fa 44 00 00 59 25 00 00 00 00 82 
00 07 62 00 00 fa 44 00 00 59 25 00 00 00 00 82 
00 07 90 00 00 fa 44 00 00 59 25 00 00 00 00 82 
00 07 97 00 00 fa 44 00 00 59 25 00 00 00 00 82 
00 07 a0 00 00 fa 44 00 00 59 25 00 00 00 00 82 
00 07 83 00 00 fa 44 00 00 59 25 00 00 00 00 82 
00 07 5d 00 00 fa 44 00 00 59 25 00 00 00 00 82 
00 07 66 00 00 fa 44 00 00 59 25 00 00 00 00 82 
00 07 77 00 00 fa 44 00 00 59 25 00 00 00 00 82 
00 07 c7 00 00 fa 44 00 00 59 25 00 00 00 00 82 
00 07 94 00 00 fa 44 00 00 59 25 00 00 00 00 82 
00 07 8b 00 00 fa 44 00 00 59 25 00 00 00 00 82 
00 07 a4 00 00 fa 44 00 00 59 25 00 00 00 00 82 
00 07 a8 00 00 fa 44 00 00 59 25 00 00 00 00 82 
00 07 82 00 00 fa 44 00 00 59 25 00 00 00 00 82 
00 07 96 00 00 fa 44 00 00 59 25 00 00 00 00 82 
00 07 6f 00 00 fa 44 00 00 59 25 00 00 00 00 82 
00 07 9b 00 00 fa 44 00 00 59 25 00 00 00 00 82 
00 07 bd 00 00 fa 44 00 00 59 25 00 00 00 00 82 
00 07 b4 00 00 fa 44 00 00 59 25 00 00 00 00 82 
00 07 b0 00 00 fa 44 00 00 59 25 00 00 00 00 82 
00 07 a3 00 00 fa 44 00 00 59 25 00 00 00 00 82 
00 07 c7 00 00 fa 44 00 00 59 25 00 00 00 00 82 
00 07 ab 00 00 fa 44 00 00 59 25 00 00 00 00 82 
00 07 b3 00 00 fa 44 00 00 59 25 00 00 00 00 82 
00 07 a0 00 00 fa 44 00 00 59 25 00 00 00 00 82 
00 07 8b 00 00 fa 44 00 00 59 25 00 00 00 00 82 
00 07 92 00 00 fa 44 00 00 59 25 00 00 00 00 82 
00 07 45 00 00 fa 44 00 00 59 25 00 00 00 00 82 
00 07 7d 00 00 fa 44 00 00 59 25 00 00 00 00 82 
00 07 d2 00 00 fa 44 00 00 59 25 00 00 00 00 82 
00 07 9e 00 00 fa 44 00 00 59 25 00 00 00 00 82 
00 07 a2 00 00 fa 44 00 00 59 25 00 00 00 00 82 
00 07 ac 00 00 fa 44 00 00 59 25 00 00 00 00 82 
00 07 cc 00 00 fa 44 00 00 59 25 00 00 00 00 82 
00 07 c2 00 00 fa 44 00 00 59 25 00 00 00 00 82 
00 07 84 00 00 fa 44 00 00 59 25 00 00 00 00 82 
00 07 96 00 00 fa 44 00 00 59 25 00 00 00 00 82 
00 07 9b 00 00 fa 44 00 00 59 25 00 00 00 00 82 
00 07 60 00 00 fa 44 00 00 59 25 00 00 00 00 82 
00 07 89 00 00 fa 44 00 00 59 25 00 00 00 00 82 
00 07 93 00 00 fa 44 00 00 59 25 00 00 00 00 82 
00 07 47 00 00 fa 44 00 00 59 25 00 00 00 00 82 
00 07 9a 00 00 fa 44 00 00 59 25 00 00 00 00 82 
00 07 a6 00 00 fa 44 00 00 59 25 00 00 00 00 82 
00 07 92 00 00 fa 44 00 00 59 25 00 00 00 00 82 
00 07 6f 00 00 fa 44 00 00 59 25 00 00 00 00 82 
00 07 7f 00 00 fa 44 00 00 59 25 00 00 00 00 82 
00 07 97 00 00 fa 44 00 00 59 25 00 00 00 00 82 
00 07 7c 00 00 fa 44 00 00 59 25 00 00 00 00 82 
00 07 92 00 00 fa 44 00 00 59 25 00 00 00 00 82 
00 07 62 00 00 fa 44 00 00 59 25 00 00 00 00 82 
00 07 93 00 00 fa 44 00 00 59 25 00 00 00 00 82 
00 07 a3 00 00 fa 44 00 00 59 25 00 00 00 00 82 
00 07 70 00 00 fa 44 00 00 59 25 00 00 00 00 82 
00 07 90 00 00 fa 44 00 00 59 25 00 00 00 00 82 
00 07 9c 00 00 fa 44 00 00 59 25 00 00 00 00 82 
00 07 55 00 00 fa 44 00 00 59 25 00 00 00 00 82 
00 07 93 00 00 fa 44 00 00 59 25 00 00 00 00 82 
00 07 6c 00 00 fa 44 00 00 59 25 00 00 00 00 82 
00 07 83 00 00 fa 44 00 00 59 25 00 00 00 00 82 
00 07 85 00 00 fa 44 00 00 59 25 00 00 00 00 82 
00 07 90 00 00 fa 44 00 00 59 25 00 00 00 00 82 
00 07 ab 00 00 fa 44 00 00 59 25 00 00 00 00 82 
00 07 83 00 00 fa 44 00 00 59 25 00 00 00 00 82 
00 07 b7 00 00 fa 44 00 00 59 25 00 00 00 00 82 
00 07 a8 00 00 fa 44 00 00 59 25 00 00 00 00 82 
00 07 9a 00 00 fa 44 00 00 59 25 00 00 00 00 82 
00 07 a1 00 00 fa 44 00 00 59 25 00 00 00 00 82 
00 08 16 00 00 fa 44 00 00 59 25 00 00 00 00 82 
00 07 d2 00 00 fa 44 00 00 59 25 00 00 00 00 82 
00 07 9f 00 00 fa 44 00 00 59 25 00 00 00 00 82 
00 07 6d 00 00 fa 44 00 00 59 25 00 00 00 00 82 
00 07 ce 00 00 fa 44 00 00 59 25 00 00 00 00 82 
00 07 a3 00 00 fa 44 00 00 59 25 00 00 00 00 82 
00 07 bb 00 00 fa 44 00 00 59 25 00 00 00 00 82 
00 07 b8 00 00 fa 44 00 00 59 25 00 00 00 00 82 
00 07 9f 00 00 fa 44 00 00 59 25 00 00 00 00 82 
00 07 88 00 00 fa 44 00 00 59 25 00 00 00 00 82 
00 07 9b 00 00 fa 44 00 00 59 25 00 00 00 00 82 
00 07 ae 00 00 fa 44 00 00 59 25 00 00 00 00 82 
00 07 8b 00 00 fa 44 00 00 59 25 00 00 00 00 82 
00 07 de 00 00 fa 44 00 00 59 25 00 00 00 00 82 
00 07 9e 00 00 fa 44 00 00 59 25 00 00 00 00 82 
00 07 95 00 00 fa 44 00 00 59 25 00 00 00 00 82 
00 07 92 00 00 fa 44 00 00 59 25 00 00 00 00 82 
00 07 7c 00 00 fa 44 00 00 59 25 00 00 00 00 82 
00 07 ae 00 00 fa 44 00 00 59 25 00 00 00 00 82 
00 07 b2 00 00 fa 44 00 00 59 25 00 00 00 00 82 
00 07 77 00 00 fa 44 00 00 59 25 00 00 00 00 82 
00 07 78 00 00 fa 44 00 00 59 25 00 00 00 00 82 
00 07 79 00 00 fa 44 00 00 59 25 00 00 00 00 82 
00 07 a3 00 00 fa 44 00 00 59 25 00 00 00 00 82 
00 07 e5 00 00 fa 44 00 00 59 25 00 00 00 00 82 
00 07 d7 00 00 fa 44 00 00 59 25 00 00 00 00 82 
00 07 a8 00 00 fa 44 00 00 59 25 00 00 00 00 82 
00 07 bd 00 00 fa 44 00 00 59 25 00 00 00 00 82 
00 07 bc 00 00 fa 44 00 00 59 25 00 00 00 00 82 
00 07 b9 00 00 fa 44 00 00 59 25 00 00 00 00 82 
00 07 c8 00 00 fa 44 00 00 59 25 00 00 00 00 82 
00 07 94 00 00 fa 44 00 00 59 25 00 00 00 00 82 
00 07 d7 00 00 fa 44 00 00 59 25 00 00 00 00 82 
00 07 a3 00 00 fa 44 00 00 59 25 00 00 00 00 82 
00 07 a5 00 00 fa 44 00 00 59 25 00 00 00 00 82 
00 07 cd 00 00 fa 44 00 00 59 25 00 00 00 00 82 
00 07 f9 00 00 fa 44 00 00 59 25 00 00 00 00 82 
00 07 e3 00 00 fa 44 00 00 59 25 00 00 00 00 82 
00 07 eb 00 00 fa 44 00 00 59 25 00 00 00 00 82 
00 07 b6 00 00 fa 44 00 00 59 25 00 00 00 00 82 
00 07 e1 00 00 fa 44 00 00 59 25 00 00 00 00 82 
00 07 be 00 00 fa 44 00 00 59 25 00 00 00 00 82 
00 07 9f 00 00 fa 44 00 00 59 25 00 00 00 00 82 
00 07 67 00 00 fa 44 00 00 59 25 00 00 00 00 82 
00 07 a4 00 00 fa 44 00 00 59 25 00 00 00 00 82 
00 07 96 00 00 fa 44 00 00 59 25 00 00 00 00 82 
00 07 a2 00 00 fa 44 00 00 59 25 00 00 00 00 82 
00 07 b0 00 00 fa 44 00 00 59 25 00 00 00 00 82 
00 07 b4 00 00 fa 44 00 00 59 25 00 00 00 00 82 
00 07 89 00 00 fa 44 00 00 59 25 00 00 00 00 82 
00 07 cc 00 00 fa 44 00 00 59 25 00 00 00 00 82 
00 07 c0 00 00 fa 44 00 00 59 25 00 00 00 00 82 
00 07 8f 00 00 fa 44 00 00 59 25 00 00 00 00 82 
00 07 95 00 00 fa 44 00 00 59 25 00 00 00 00 82 
00 07 bd 00 00 fa 44 00 00 59 25 00 00 00 00 82 
00 07 85 00 00 fa 44 00 00 59 25 00 00 00 00 82 
00 07 a0 00 00 fa 44 00 00 59 25 00 00 00 00 82 
00 07 6c 00 00 fa 44 00 00 59 25 00 00 00 00 82 
00 07 a8 00 00 fa 44 00 00 59 25 00 00 00 00 82 
00 07 b1 00 00 fa 44 00 00 59 25 00 00 00 00 82 
00 07 88 00 00 fa 44 00 00 59 25 00 00 00 00 82 
00 07 b6 00 00 fa 44 00 00 59 25 00 00 00 00 82 
00 07 8b 00 00 fa 44 00 00 59 25 00 00 00 00 82 
00 07 d1 00 00 fa 44 00 00 59 25 00 00 00 00 82 
00 07 bb 00 00 fa 44 00 00 59 25 00 00 00 00 82 
00 07 b6 00 00 fa 44 00 00 59 25 00 00 00 00 82 
00 07 df 00 00 fa 44 00 00 59 25 00 00 00 00 82 
00 07 db 00 00 fa 44 00 00 59 25 00 00 00 00 82 
00 07 f7 00 00 fa 44 00 00 59 25 00 00 00 00 82 
00 07 ac 00 00 fa 44 00 00 59 25 00 00 00 00 82 
00 07 d5 00 00 fa 44 00 00 59 25 00 00 00 00 82 
00 07 ce 00 00 fa 44 00 00 59 25 00 00 00 00 82 
00 07 8f 00 00 fa 44 00 00 59 25 00 00 00 00 82 
00 07 a1 00 00 fa 44 00 00 59 25 00 00 00 00 82 
00 07 e1 00 00 fa 44 00 00 59 25 00 00 00 00 82 
00 07 a4 00 00 fa 44 00 00 59 25 00 00 00 00 82 
00 07 bc 00 00 fa 44 00 00 59 25 00 00 00 00 82 
00 07 ec 00 00 fa 44 00 00 59 25 00 00 00 00 82 
00 07 f6 00 00 fa 44 00 00 59 25 00 00 00 00 82 
00 07 e7 00 00 fa 44 00 00 59 25 00 00 00 00 82 
00 08 06 00 00 fa 44 00 00 59 25 00 00 00 00 82 
00 07 ac 00 00 fa 44 00 00 59 25 00 00 00 00 82 
00 07 c7 00 00 fa 44 00 00 59 25 00 00 00 00 82 
00 07 c7 00 00 fa 44 00 00 59 25 00 00 00 00 82 
00 07 ee 00 00 fa 44 00 00 59 25 00 00 00 00 82 
00 07 eb 00 00 fa 44 00 00 59 25 00 00 00 00 82 
00 07 d4 00 00 fa 44 00 00 59 25 00 00 00 00 82 
00 07 b1 00 00 fa 44 00 00 59 25 00 00 00 00 82 
00 07 d1 00 00 fa 44 00 00 59 25 00 00 00 00 82 
00 07 84 00 00 fa 44 00 00 59 25 00 00 00 00 82 
00 07 ec 00 00 fa 44 00 00 59 25 00 00 00 00 82 
00 07 a1 00 00 fa 44 00 00 59 25 00 00 00 00 82 
00 07 e5 00 00 fa 44 00 00 59 25 00 00 00 00 82 
00 07 f2 00 00 fa 44 00 00 59 25 00 00 00 00 82 
00 07 bd 10 63 00 00 00 00 10 00 5b 25 00 00 82 
00 07 cd 00 00 fa 44 00 00 04 00 00 00 94 80 82 
00 07 88 00 00 fa 44 00 00 04 00 00 00 94 80 82 
00 07 b8 00 00 fa 44 00 00 04 00 00 00 94 80 82 
00 07 cd 00 00 fa 44 00 00 04 00 00 00 94 80 82 
00 07 99 00 00 fa 44 00 00 04 00 00 00 94 80 82 
00 07 c4 00 00 fa 44 00 00 04 00 00 00 94 80 82 
00 07 91 00 00 fa 44 00 00 04 00 00 00 94 80 82 
00 07 9f 00 00 fa 44 00 00 04 00 00 00 94 80 82 
00 07 b8 00 00 fa 44 00 00 04 00 00 00 94 80 82 
00 07 a6 00 00 fa 44 00 00 04 00 00 00 94 80 82 
00 07 f0 00 00 fa 44 00 00 04 00 00 00 94 80 82 
00 07 d0 00 00 fa 44 00 00 04 00 00 00 94 80 82 
00 07 b9 00 00 fa 44 00 00 04 00 00 00 94 80 82 
00 07 88 00 00 fa 44 00 00 04 00 00 00 94 80 82 
00 07 8e 00 00 fa 44 00 00 04 00 00 00 94 80 82 
00 07 85 00 00 fa 44 00 00 04 00 00 00 94 80 82 
00 07 de 00 00 fa 44 00 00 04 00 00 00 94 80 82 
00 07 b3 00 00 fa 44 00 00 04 00 00 00 94 80 82 
00 07 8d 00 00 fa 44 00 00 04 00 00 00 94 80 82 
00 07 6d 00 00 fa 44 00 00 04 00 00 00 94 80 82 
00 07 7c 00 00 fa 44 00 00 04 00 00 00 94 80 82 
00 07 86 00 00 fa 44 00 00 04 00 00 00 94 80 82 
00 07 81 00 00 fa 44 00 00 04 00 00 00 94 80 82 
00 07 95 00 00 fa 44 00 00 04 00 00 00 94 80 82 
00 07 db 00 00 fa 44 00 00 04 00 00 00 94 80 82 
00 07 90 00 00 fa 44 00 00 04 00 00 00 94 80 82 
00 07 b4 00 00 fa 44 00 00 04 00 00 00 94 80 82 
00 07 8c 00 00 fa 44 00 00 04 00 00 00 94 80 82 
00 07 81 00 00 fa 44 00 00 04 00 00 00 94 80 82 
00 07 af 00 00 fa 44 00 00 04 00 00 00 94 80 82 
00 07 83 00 00 fa 44 00 00 04 00 00 00 94 80 82 
00 07 aa 00 00 fa 44 00 00 04 00 00 00 94 80 82 
00 07 9c 00 00 fa 44 00 00 04 00 00 00 94 80 82 
00 07 de 00 00 fa 44 00 00 04 00 00 00 94 80 82 
00 07 bd 00 00 fa 44 00 00 04 00 00 00 94 80 82 
00 07 7e 00 00 fa 44 00 00 04 00 00 00 94 80 82 
00 07 aa 00 00 fa 44 00 00 04 00 00 00 94 80 82 
00 07 b1 00 00 fa 44 00 00 04 00 00 00 94 80 82 
00 07 af 00 00 fa 44 00 00 04 00 00 00 94 80 82 
00 07 9f 00 00 fa 44 00 00 04 00 00 00 94 80 82 
00 07 79 00 00 fa 44 00 00 04 00 00 00 94 80 82 
00 07 7f 00 00 fa 44 00 00 04 00 00 00 94 80 82 
00 07 b2 00 00 fa 44 00 00 04 00 00 00 94 80 82 
00 07 9a 00 00 fa 44 00 00 04 00 00 00 94 80 82 
00 07 d1 00 00 fa 44 00 00 04 00 00 00 94 80 82 
00 07 95 00 00 fa 44 00 00 04 00 00 00 94 80 82 
00 07 84 00 00 fa 44 00 00 04 00 00 00 94 80 82 
00 07 99 00 00 fa 44 00 00 04 00 00 00 94 80 82 
00 07 d1 00 00 fa 44 00 00 04 00 00 00 94 80 82 
00 07 8b 00 00 fa 44 00 00 04 00 00 00 94 80 82 
00 07 ad 00 00 fa 44 00 00 04 00 00 00 94 80 82 
00 07 cc 00 00 fa 44 00 00 04 00 00 00 94 80 82 
00 07 90 00 00 fa 44 00 00 04 00 00 00 94 80 82 
00 07 9f 00 00 fa 44 00 00 04 00 00 00 94 80 82 
00 07 bb 00 00 fa 44 00 00 04 00 00 00 94 80 82 
00 07 ae 00 00 fa 44 00 00 04 00 00 00 94 80 82 
00 07 94 00 00 fa 44 00 00 04 00 00 00 94 80 82 
00 07 85 00 00 fa 44 00 00 04 00 00 00 94 80 82 
00 07 9b 00 00 fa 44 00 00 04 00 00 00 94 80 82 
00 07 b7 00 00 fa 44 00 00 04 00 00 00 94 80 82 
00 07 c1 00 00 fa 44 00 00 04 00 00 00 94 80 82 
00 07 a1 00 00 fa 44 00 00 04 00 00 00 94 80 82 
00 07 b7 00 00 fa 44 00 00 04 00 00 00 94 80 82 
00 07 ac 00 00 fa 44 00 00 04 00 00 00 94 80 82 
00 07 a7 00 00 fa 44 00 00 04 00 00 00 94 80 82 
00 07 b4 00 00 fa 44 00 00 04 00 00 00 94 80 82 
00 07 8d 00 00 fa 44 00 00 04 00 00 00 94 80 82 
00 07 b1 00 00 fa 44 00 00 04 00 00 00 94 80 82 
00 07 9b 00 00 fa 44 00 00 04 00 00 00 94 80 82 
00 07 c2 00 00 fa 44 00 00 04 00 00 00 94 80 82 
00 07 b4 00 00 fa 44 00 00 04 00 00 00 94 80 82 
00 07 b1 00 00 fa 44 00 00 04 00 00 00 94 80 82 
00 07 d1 00 00 fa 44 00 00 04 00 00 00 94 80 82 
00 07 9e 00 00 fa 44 00 00 04 00 00 00 94 80 82 
00 07 96 00 00 fa 44 00 00 04 00 00 00 94 80 82 
00 08 0e 00 00 fa 44 00 00 04 00 00 00 94 80 82 
00 07 b4 00 00 fa 44 00 00 04 00 00 00 94 80 82 
00 07 bb 00 00 fa 44 00 00 04 00 00 00 94 80 82 
00 07 9e 00 00 fa 44 00 00 04 00 00 00 94 80 82 
00 07 d5 00 00 fa 44 00 00 04 00 00 00 94 80 82 
00 07 9e 00 00 fa 44 00 00 04 00 00 00 94 80 82 
00 07 97 00 00 fa 44 00 00 04 00 00 00 94 80 82 
00 07 d6 00 00 fa 44 00 00 04 00 00 00 94 80 82 
00 07 73 00 00 fa 44 00 00 04 00 00 00 94 80 82 
00 07 b3 00 00 fa 44 00 00 04 00 00 00 94 80 82 
00 07 93 00 00 fa 44 00 00 04 00 00 00 94 80 82 
00 07 b1 00 00 fa 44 00 00 04 00 00 00 94 80 82 
00 07 97 00 00 fa 44 00 00 04 00 00 00 94 80 82 
00 07 c3 00 00 fa 44 00 00 04 00 00 00 94 80 82 
00 07 e4 00 00 fa 44 00 00 04 00 00 00 94 80 82 
00 07 a4 00 00 fa 44 00 00 04 00 00 00 94 80 82 
00 07 78 00 00 fa 44 00 00 04 00 00 00 94 80 82 
00 07 f7 00 00 fa 44 00 00 04 00 00 00 94 80 82 
00 07 aa 00 00 fa 44 00 00 04 00 00 00 94 80 82 
00 07 d8 00 00 fa 44 00 00 04 00 00 00 94 80 82 
00 07 ab 00 00 fa 44 00 00 04 00 00 00 94 80 82 
00 07 62 00 00 fa 44 00 00 04 00 00 00 94 80 82 
00 07 ff 00 00 fa 44 00 00 04 00 00 00 94 80 82 
00 07 b0 00 00 fa 44 00 00 04 00 00 00 94 80 82 
00 07 ea 00 00 fa 44 00 00 04 00 00 00 94 80 82 
00 07 c3 00 00 fa 44 00 00 04 00 00 00 94 80 82 
00 07 bc 00 00 fa 44 00 00 04 00 00 00 94 80 82 
00 07 b3 00 00 fa 44 00 00 04 00 00 00 94 80 82 
00 07 dd 00 00 fa 44 00 00 04 00 00 00 94 80 82 
00 07 ca 00 00 fa 44 00 00 04 00 00 00 94 80 82 
00 08 06 00 00 fa 44 00 00 04 00 00 00 94 80 82 
00 07 a8 00 00 fa 44 00 00 04 00 00 00 94 80 82 
00 07 b9 00 00 fa 44 00 00 04 00 00 00 94 80 82 
00 08 03 00 00 fa 44 00 00 04 00 00 00 94 80 82 
00 07 c6 00 00 fa 44 00 00 04 00 00 00 94 80 82 
00 07 b2 00 00 fa 44 00 00 04 00 00 00 94 80 82 
00 07 b8 00 00 fa 44 00 00 04 00 00 00 94 80 82 
00 07 e9 00 00 fa 44 00 00 04 00 00 00 94 80 82 
00 07 bb 00 00 fa 44 00 00 04 00 00 00 94 80 82 
00 07 bf 00 00 fa 44 00 00 04 00 00 00 94 80 82 
00 07 bd 00 00 fa 44 00 00 04 00 00 00 94 80 82 
00 07 89 00 00 fa 44 00 00 04 00 00 00 94 80 82 
00 07 8f 00 00 fa 44 00 00 04 00 00 00 94 80 82 
00 07 86 00 00 fa 44 00 00 04 00 00 00 94 80 82 
00 07 c8 00 00 fa 44 00 00 04 00 00 00 94 80 82 
00 07 df 00 00 fa 44 00 00 04 00 00 00 94 80 82 
00 07 d2 00 00 fa 44 00 00 04 00 00 00 94 80 82 
00 07 8f 00 00 fa 44 00 00 04 00 00 00 94 80 82 
00 07 c9 00 00 fa 44 00 00 04 00 00 00 94 80 82 
00 07 9e 00 00 fa 44 00 00 04 00 00 00 94 80 82 
00 07 db 00 00 fa 44 00 00 04 00 00 00 94 80 82 
00 07 6b 00 00 fa 44 00 00 04 00 00 00 94 80 82 
00 07 e6 00 00 fa 44 00 00 04 00 00 00 94 80 82 
00 07 ca 00 00 fa 44 00 00 04 00 00 00 94 80 82 
00 07 a5 00 00 fa 44 00 00 04 00 00 00 94 80 82 
00 07 d9 00 00 fa 44 00 00 04 00 00 00 94 80 82 
00 07 d7 00 00 fa 44 00 00 04 00 00 00 94 80 82 
00 07 b7 00 00 fa 44 00 00 04 00 00 00 94 80 82 
00 07 fc 00 00 fa 44 00 00 04 00 00 00 94 80 82 
00 07 8a 00 00 fa 44 00 00 04 00 00 00 94 80 82 
00 07 a0 00 00 fa 44 00 00 04 00 00 00 94 80 82 
00 07 b3 00 00 fa 44 00 00 04 00 00 00 94 80 82 
00 07 dd 00 00 fa 44 00 00 04 00 00 00 94 80 82 
00 07 ad 00 00 fa 44 00 00 04 00 00 00 94 80 82 
00 07 7f 00 00 fa 44 00 00 04 00 00 00 94 80 82 
00 07 a6 00 00 fa 44 00 00 04 00 00 00 94 80 82 
00 07 dd 00 00 fa 44 00 00 04 00 00 00 94 80 82 
00 07 ce 00 00 fa 44 00 00 04 00 00 00 94 80 82 
00 07 d7 00 00 fa 44 00 00 04 00 00 00 94 80 82 
00 07 97 00 00 fa 44 00 00 04 00 00 00 94 80 82 
00 07 be 00 00 fa 44 00 00 04 00 00 00 94 80 82 
00 07 a1 00 00 fa 44 00 00 04 00 00 00 94 80 82 
00 07 88 00 00 fa 44 00 00 04 00 00 00 94 80 82 
00 07 bd 00 00 fa 44 00 00 04 00 00 00 94 80 82 
00 07 96 00 00 fa 44 00 00 04 00 00 00 94 80 82 
00 07 99 00 00 fa 44 00 00 04 00 00 00 94 80 82 
00 07 a2 00 00 fa 44 00 00 04 00 00 00 94 80 82 
00 07 69 00 00 fa 44 00 00 04 00 00 00 94 80 82 
00 07 b1 00 00 fa 44 00 00 04 00 00 00 94 80 82 
00 07 bd 00 00 fa 44 00 00 04 00 00 00 94 80 82 
00 07 58 00 00 fa 44 00 00 04 00 00 00 94 80 82 
00 07 7a 00 00 fa 44 00 00 04 00 00 00 94 80 82 
00 07 4e 00 00 fa 44 00 00 04 00 00 00 94 80 82 
00 07 68 00 00 fa 44 00 00 04 00 00 00 94 80 82 
00 07 59 00 00 fa 44 00 00 04 00 00 00 94 80 82 
00 07 a5 00 00 fa 44 00 00 04 00 00 00 94 80 82 
00 07 ab 00 00 fa 44 00 00 04 00 00 00 94 80 82 
00 07 83 00 00 fa 44 00 00 04 00 00 00 94 80 82 
00 07 1b 00 00 fa 44 00 00 04 00 00 00 94 80 82 
00 07 59 00 00 fa 44 00 00 04 00 00 00 94 80 82 
00 07 81 00 00 fa 44 00 00 04 00 00 00 94 80 82 
00 07 80 00 00 fa 44 00 00 04 00 00 00 94 80 82 
00 07 b2 00 00 fa 44 00 00 04 00 00 00 94 80 82 
00 07 72 00 00 fa 44 00 00 04 00 00 00 94 80 82 
00 07 79 00 00 fa 44 00 00 04 00 00 00 94 80 82 
00 07 9c 00 00 fa 44 00 00 04 00 00 00 94 80 82 
00 07 c6 00 00 fa 44 00 00 04 00 00 00 94 80 82 
00 07 bc 00 00 fa 44 00 00 04 00 00 00 94 80 82 
00 07 c4 00 00 fa 44 00 00 04 00 00 00 94 80 82 
00 07 b4 00 00 fa 44 00 00 04 00 00 00 94 80 82 
00 07 a4 00 00 fa 44 00 00 04 00 00 00 94 80 82 
00 07 c3 00 00 fa 44 00 00 04 00 00 00 94 80 82 
00 07 af 00 00 fa 44 00 00 04 00 00 00 94 80 82 
00 07 a2 00 00 fa 44 00 00 04 00 00 00 94 80 82 
00 07 ee 00 00 fa 44 00 00 04 00 00 00 94 80 82 
00 07 d5 00 00 fa 44 00 00 04 00 00 00 94 80 82 
00 07 b9 00 00 fa 44 00 00 04 00 00 00 94 80 82 
00 07 a8 00 00 fa 44 00 00 04 00 00 00 94 80 82 
00 07 cd 00 00 fa 44 00 00 04 00 00 00 94 80 82 
00 07 b7 00 00 fa 44 00 00 04 00 00 00 94 80 82 
00 07 d2 00 00 fa 44 00 00 04 00 00 00 94 80 82 
00 07 d8 00 00 fa 44 00 00 04 00 00 00 94 80 82 
00 07 cd 00 00 fa 44 00 00 04 00 00 00 94 80 82 
00 07 d2 00 00 fa 44 00 00 04 00 00 00 94 80 82 
00 07 91 00 00 fa 44 00 00 04 00 00 00 94 80 82 
00 07 d3 00 00 fa 44 00 00 04 00 00 00 94 80 82 
00 07 cd 00 00 fa 44 00 00 04 00 00 00 94 80 82 
00 07 b4 00 00 fa 44 00 00 04 00 00 00 94 80 82 
00 07 a4 00 00 fa 44 00 00 04 00 00 00 94 80 82 
00 07 bc 00 00 fa 44 00 00 04 00 00 00 94 80 82 
00 07 c7 00 00 fa 44 00 00 04 00 00 00 94 80 82 
00 07 c9 00 00 fa 44 00 00 04 00 00 00 94 80 82 
00 07 b4 00 00 fa 44 00 00 04 00 00 00 94 80 82 
00 07 c1 00 00 fa 44 00 00 04 00 00 00 94 80 82 
00 07 c8 00 00 fa 44 00 00 04 00 00 00 94 80 82 
00 07 ce 00 00 fa 44 00 00 04 00 00 00 94 80 82 
00 07 c3 00 00 fa 44 00 00 04 00 00 00 94 80 82 
00 07 e7 00 00 fa 44 00 00 04 00 00 00 94 80 82 
00 07 ea 00 00 fa 44 00 00 04 00 00 00 94 80 82 
00 07 a4 00 00 fa 44 00 00 04 00 00 00 94 80 82 
00 07 ec 00 00 fa 44 00 00 04 00 00 00 94 80 82 
00 07 d6 00 00 fa 44 00 00 04 00 00 00 94 80 82 
00 07 cc 00 00 fa 44 00 00 04 00 00 00 94 80 82 
00 07 f5 00 00 fa 44 00 00 04 00 00 00 94 80 82 
00 07 bb 00 00 fa 44 00 00 04 00 00 00 94 80 82 
00 07 c7 00 00 fa 44 00 00 04 00 00 00 94 80 82 
00 07 dd 00 00 fa 44 00 00 04 00 00 00 94 80 82 
00 07 cd 00 00 fa 44 00 00 04 00 00 00 94 80 82 
00 07 a8 00 00 fa 44 00 00 04 00 00 00 94 80 82 
00 07 eb 00 00 fa 44 00 00 04 00 00 00 94 80 82 
00 07 ee 00 00 fa 44 00 00 04 00 00 00 94 80 82 
00 07 b6 00 00 fa 44 00 00 04 00 00 00 94 80 82 
00 07 c3 00 00 fa 44 00 00 04 00 00 00 94 80 82 
00 08 06 00 00 fa 44 00 00 04 00 00 00 94 80 82 
00 07 c1 00 00 fa 44 00 00 04 00 00 00 94 80 82 
00 07 da 00 00 fa 44 00 00 04 00 00 00 94 80 82 
00 07 f4 00 00 fa 44 00 00 04 00 00 00 94 80 82 
00 07 e4 00 00 fa 44 00 00 04 00 00 00 94 80 82 
00 07 c2 00 00 fa 44 00 00 04 00 00 00 94 80 82 
00 08 09 00 00 fa 44 00 00 04 00 00 00 94 80 82 
00 07 f0 00 00 fa 44 00 00 04 00 00 00 94 80 82 
00 08 47 00 00 fa 44 00 00 04 00 00 00 94 80 82 
00 08 04 00 00 fa 44 00 00 04 00 00 00 94 80 82 
00 07 fb 00 00 fa 44 00 00 04 00 00 00 94 80 82 
00 07 c7 00 00 fa 44 00 00 04 00 00 00 94 80 82 
00 08 26 00 00 fa 44 00 00 04 00 00 00 94 80 82 
00 08 00 00 00 fa 44 00 00 04 00 00 00 94 80 82 
00 07 c9 00 00 fa 44 00 00 04 00 00 00 94 80 82 
00 07 f7 00 00 fa 44 00 00 04 00 00 00 94 80 82 
00 07 fd 00 00 fa 44 00 00 04 00 00 00 94 80 82 
00 07 ce 00 00 fa 44 00 00 04 00 00 00 94 80 82 
00 07 f1 00 00 fa 44 00 00 04 00 00 00 94 80 82 
00 07 d3 00 00 fa 44 00 00 04 00 00 00 94 80 82 
00 07 a7 00 00 fa 44 00 00 04 00 00 00 94 80 82 
00 08 07 00 00 fa 44 00 00 04 00 00 00 94 80 82 
00 07 e8 00 00 fa 44 00 00 04 00 00 00 94 80 82 
00 07 eb 00 00 fa 44 00 00 04 00 00 00 94 80 82 
00 08 0e 00 00 fa 44 00 00 04 00 00 00 94 80 82 
00 07 e4 00 00 fa 44 00 00 04 00 00 00 94 80 82 
00 07 cc 00 00 fa 44 00 00 04 00 00 00 94 80 82 
00 07 cc 00 00 fa 44 00 00 04 00 00 00 94 80 82 
00 07 ef 00 00 fa 44 00 00 04 00 00 00 94 80 82 
00 07 ad 00 00 fa 44 00 00 04 00 00 00 94 80 82 
00 07 d0 00 00 fa 44 00 00 04 00 00 00 94 80 82 
00 07 bc 00 00 fa 44 00 00 04 00 00 00 94 80 82 
00 07 b2 00 00 fa 44 00 00 04 00 00 00 94 80 82 
00 07 92 00 00 fa 44 00 00 04 00 00 00 94 80 82 
00 07 ab 00 00 fa 44 00 00 04 00 00 00 94 80 82 
00 07 a0 00 00 fa 44 00 00 04 00 00 00 94 80 82 
00 07 b1 00 00 fa 44 00 00 04 00 00 00 94 80 82 
00 07 a8 00 00 fa 44 00 00 04 00 00 00 94 80 82 
00 07 95 00 00 fa 44 00 00 04 00 00 00 94 80 82 
00 07 9c 00 00 fa 44 00 00 04 00 00 00 94 80 82 
00 07 d9 00 00 fa 44 00 00 04 00 00 00 94 80 82 
00 07 c7 00 00 fa 44 00 00 04 00 00 00 94 80 82 
00 07 c1 00 00 fa 44 00 00 04 00 00 00 94 80 82 
00 07 d0 00 00 fa 44 00 00 04 00 00 00 94 80 82 
00 07 c3 00 00 fa 44 00 00 04 00 00 00 94 80 82 
00 07 9f 00 00 fa 44 00 00 04 00 00 00 94 80 82 
00 07 c6 00 00 fa 44 00 00 04 00 00 00 94 80 82 
00 07 f7 00 00 fa 44 00 00 04 00 00 00 94 80 82 
00 07 ad 00 00 fa 44 00 00 04 00 00 00 94 80 82 
00 07 f5 00 00 fa 44 00 00 04 00 00 00 94 80 82 
00 07 a4 00 00 fa 44 00 00 04 00 00 00 94 80 82 
00 07 c3 00 00 fa 44 00 00 04 00 00 00 94 80 82 
00 07 e1 00 00 fa 44 00 00 04 00 00 00 94 80 82 
00 07 bf 00 00 fa 44 00 00 04 00 00 00 94 80 82 
00 07 9f 00 00 fa 44 00 00 04 00 00 00 94 80 82 
00 07 b1 00 00 fa 44 00 00 04 00 00 00 94 80 82 
00 07 de 00 00 fa 44 00 00 04 00 00 00 94 80 82 
00 07 d7 00 00 fa 44 00 00 04 00 00 00 94 80 82 
00 07 aa 00 00 fa 44 00 00 04 00 00 00 94 80 82 
00 07 ad 00 00 fa 44 00 00 04 00 00 00 94 80 82 
00 07 c5 00 00 fa 44 00 00 04 00 00 00 94 80 82 
00 07 ca 00 00 fa 44 00 00 04 00 00 00 94 80 82 
00 07 b1 00 00 fa 44 00 00 04 00 00 00 94 80 82 
00 07 94 00 00 fa 44 00 00 04 00 00 00 94 80 82 
00 07 8b 00 00 fa 44 00 00 04 00 00 00 94 80 82 
00 07 c3 00 00 fa 44 00 00 04 00 00 00 94 80 82 
00 07 a7 00 00 fa 44 00 00 04 00 00 00 94 80 82 
00 08 07 00 00 fa 44 00 00 04 00 00 00 94 80 82 
00 07 d1 00 00 fa 44 00 00 04 00 00 00 94 80 82 
00 07 b5 00 00 fa 44 00 00 04 00 00 00 94 80 82 
00 07 e3 00 00 fa 44 00 00 04 00 00 00 94 80 82 
00 07 a1 00 00 fa 44 00 00 04 00 00 00 94 80 82 
00 07 da 00 00 fa 44 00 00 04 00 00 00 94 80 82 
00 07 ac 00 00 fa 44 00 00 04 00 00 00 94 80 82 
00 07 e6 00 00 fa 44 00 00 04 00 00 00 94 80 82 
00 07 93 00 00 fa 44 00 00 04 00 00 00 94 80 82 
00 07 b9 00 00 fa 44 00 00 04 00 00 00 94 80 82 
00 07 d4 00 00 fa 44 00 00 04 00 00 00 94 80 82 
00 07 cf 00 00 fa 44 00 00 04 00 00 00 94 80 82 
00 07 c5 00 00 fa 44 00 00 04 00 00 00 94 80 82 
00 07 b8 00 00 fa 44 00 00 04 00 00 00 94 80 82 
00 07 b6 00 00 fa 44 00 00 04 00 00 00 94 80 82 
00 07 e8 00 00 fa 44 00 00 04 00 00 00 94 80 82 
00 07 e4 00 00 fa 44 00 00 04 00 00 00 94 80 82 
00 07 db 00 00 fa 44 00 00 04 00 00 00 94 80 82 
00 07 b5 00 00 fa 44 00 00 04 00 00 00 94 80 82 
00 07 ee 00 00 fa 44 00 00 04 00 00 00 94 80 82 
00 08 17 00 00 fa 44 00 00 04 00 00 00 94 80 82 
00 07 d9 00 00 fa 44 00 00 04 00 00 00 94 80 82 
00 07 9e 00 00 fa 44 00 00 04 00 00 00 94 80 82 
00 07 d1 00 00 fa 44 00 00 04 00 00 00 94 80 82 
00 07 94 00 00 fa 44 00 00 04 00 00 00 94 80 82 
00 07 e8 00 00 fa 44 00 00 04 00 00 00 94 80 82 
00 07 eb 00 00 fa 44 00 00 04 00 00 00 94 80 82 
00 07 c1 00 00 fa 44 00 00 04 00 00 00 94 80 82 
00 07 e3 00 00 fa 44 00 00 04 00 00 00 94 80 82 
00 07 ee 00 00 fa 44 00 00 04 00 00 00 94 80 82 
00 07 f3 00 00 fa 44 00 00 04 00 00 00 94 80 82 
00 07 ca 00 00 fa 44 00 00 04 00 00 00 94 80 82 
00 07 e4 00 00 fa 44 00 00 04 00 00 00 94 80 82 
00 07 ab 00 00 fa 44 00 00 04 00 00 00 94 80 82 
00 07 df 00 00 fa 44 00 00 04 00 00 00 94 80 82 
00 07 b7 00 00 fa 44 00 00 04 00 00 00 94 80 82 
00 07 f6 00 00 fa 44 00 00 04 00 00 00 94 80 82 
00 07 e5 00 00 fa 44 00 00 04 00 00 00 94 80 82 
00 07 f6 00 00 fa 44 00 00 04 00 00 00 94 80 82 
00 07 bf 00 00 fa 44 00 00 04 00 00 00 94 80 82 
00 07 d6 00 00 fa 44 00 00 04 00 00 00 94 80 82 
00 07 d6 00 00 fa 44 00 00 04 00 00 00 94 80 82 
00 07 83 00 00 fa 44 00 00 04 00 00 00 94 80 82 
00 08 0e 00 00 fa 44 00 00 04 00 00 00 94 80 82 
00 07 b8 00 00 fa 44 00 00 04 00 00 00 94 80 82 
00 07 c4 00 00 fa 44 00 00 04 00 00 00 94 80 82 
00 07 e7 00 00 fa 44 00 00 04 00 00 00 94 80 82 
00 07 ce 00 00 fa 44 00 00 04 00 00 00 94 80 82 
00 07 ef 00 00 fa 44 00 00 04 00 00 00 94 80 82 
00 07 e3 00 00 fa 44 00 00 04 00 00 00 94 80 82 
00 07 b1 00 00 fa 44 00 00 04 00 00 00 94 80 82 
00 07 d0 00 00 fa 44 00 00 04 00 00 00 94 80 82 
00 07 d4 00 00 fa 44 00 00 04 00 00 00 94 80 82 
00 08 07 00 00 fa 44 00 00 04 00 00 00 94 80 82 
00 07 ce 00 00 fa 44 00 00 04 00 00 00 94 80 82 
00 07 d9 00 00 fa 44 00 00 04 00 00 00 94 80 82 
00 07 bb 00 00 fa 44 00 00 04 00 00 00 94 80 82 
00 07 f7 00 00 fa 44 00 00 04 00 00 00 94 80 82 
00 07 b8 00 00 fa 44 00 00 04 00 00 00 94 80 82 
00 07 9c 00 00 fa 44 00 00 04 00 00 00 94 80 82 
00 07 cd 00 00 fa 44 00 00 04 00 00 00 94 80 82 
00 07 a5 00 00 fa 44 00 00 04 00 00 00 94 80 82 
00 07 d3 00 00 fa 44 00 00 04 00 00 00 94 80 82 
00 07 b3 00 00 fa 44 00 00 04 00 00 00 94 80 82 
00 07 af 00 00 fa 44 00 00 04 00 00 00 94 80 82 
00 08 09 00 00 fa 44 00 00 04 00 00 00 94 80 82 
00 07 e9 00 00 fa 44 00 00 04 00 00 00 94 80 82 
00 07 e3 00 00 fa 44 00 00 04 00 00 00 94 80 82 
00 07 f5 00 00 fa 44 00 00 04 00 00 00 94 80 82 
00 07 da 00 00 fa 44 00 00 04 00 00 00 94 80 82 
00 07 ec 00 00 fa 44 00 00 04 00 00 00 94 80 82 
00 08 0e 00 00 fa 44 00 00 04 00 00 00 94 80 82 
00 07 ec 00 00 fa 44 00 00 04 00 00 00 94 80 82 
00 07 f8 00 00 fa 44 00 00 04 00 00 00 94 80 82 
00 07 eb 00 00 fa 44 00 00 04 00 00 00 94 80 82 
00 07 ff 00 00 fa 44 00 00 04 00 00 00 94 80 82 
00 07 bf 00 00 fa 44 00 00 04 00 00 00 94 80 82 
00 07 db 00 00 fa 44 00 00 04 00 00 00 94 80 82 
00 07 ca 00 00 fa 44 00 00 04 00 00 00 94 80 82 
00 07 c3 00 00 fa 44 00 00 04 00 00 00 94 80 82 
00 08 0b 00 00 fa 44 00 00 04 00 00 00 94 80 82 
00 07 f1 00 00 fa 44 00 00 04 00 00 00 94 80 82 
00 07 f4 00 00 fa 44 00 00 04 00 00 00 94 80 82 
00 07 aa 00 00 fa 44 00 00 04 00 00 00 94 80 82 
00 07 fc 00 00 fa 44 00 00 04 00 00 00 94 80 82 
00 08 03 00 00 fa 44 00 00 04 00 00 00 94 80 82 
00 07 f3 00 00 fa 44 00 00 04 00 00 00 94 80 82 
00 08 06 00 00 fa 44 00 00 04 00 00 00 94 80 82 
00 07 f4 00 00 fa 44 00 00 04 00 00 00 94 80 82 
00 08 2e 00 00 fa 44 00 00 04 00 00 00 94 80 82 
00 07 f0 00 00 fa 44 00 00 04 00 00 00 94 80 82 
00 07 ef 00 00 fa 44 00 00 04 00 00 00 94 80 82 
00 07 c2 00 00 fa 44 00 00 04 00 00 00 94 80 82 
00 07 d5 00 00 fa 44 00 00 04 00 00 00 94 80 82 
00 07 b2 00 00 fa 44 00 00 04 00 00 00 94 80 82 
00 07 e9 00 00 fa 44 00 00 04 00 00 00 94 80 82 
00 07 c0 00 00 fa 44 00 00 04 00 00 00 94 80 82 
00 07 c0 00 00 fa 44 00 00 04 00 00 00 94 80 82 
00 07 e6 00 00 fa 44 00 00 04 00 00 00 94 80 82 
00 07 d0 00 00 fa 44 00 00 04 00 00 00 94 80 82 
00 07 c8 00 00 fa 44 00 00 04 00 00 00 94 80 82 
00 07 c0 00 00 fa 44 00 00 04 00 00 00 94 80 82 
00 07 d2 00 00 fa 44 00 00 04 00 00 00 94 80 82 
00 07 c7 00 00 fa 44 00 00 04 00 00 00 94 80 82 
00 07 c8 00 00 fa 44 00 00 04 00 00 00 94 80 82 
00 07 c6 00 00 fa 44 00 00 04 00 00 00 94 80 82 
00 07 d3 00 00 fa 44 00 00 04 00 00 00 94 80 82 
00 07 d5 00 00 fa 44 00 00 04 00 00 00 94 80 82 
00 07 ef 00 00 fa 44 00 00 04 00 00 00 94 80 82 
00 07 a8 00 00 fa 44 00 00 04 00 00 00 94 80 82 
00 07 d3 00 00 fa 44 00 00 04 00 00 00 94 80 82 
00 07 b3 00 00 fa 44 00 00 04 00 00 00 94 80 82 
00 07 ad 00 00 fa 44 00 00 04 00 00 00 94 80 82 
00 07 d6 00 00 fa 44 00 00 04 00 00 00 94 80 82 
00 07 97 00 00 fa 44 00 00 04 00 00 00 94 80 82 
00 07 a6 00 00 fa 44 00 00 04 00 00 00 94 80 82 
00 07 cf 00 00 fa 44 00 00 04 00 00 00 94 80 82 
00 07 d2 00 00 fa 44 00 00 04 00 00 00 94 80 82 
00 07 b7 00 00 fa 44 00 00 04 00 00 00 94 80 82 
00 07 71 00 00 fa 44 00 00 04 00 00 00 94 80 82 
00 07 ae 00 00 fa 44 00 00 04 00 00 00 94 80 82 
00 07 d3 00 00 fa 44 00 00 04 00 00 00 94 80 82 
00 07 bf 00 00 fa 44 00 00 04 00 00 00 94 80 82 
00 07 cf 00 00 fa 44 00 00 04 00 00 00 94 80 82 
00 07 c4 00 00 fa 44 00 00 04 00 00 00 94 80 82 
00 07 ee 00 00 fa 44 00 00 04 00 00 00 94 80 82 
00 07 9d 00 00 fa 44 00 00 04 00 00 00 94 80 82 
00 07 bb 00 00 fa 44 00 00 04 00 00 00 94 80 82 
00 07 9b 00 00 fa 44 00 00 04 00 00 00 94 80 82 
00 07 be 00 00 fa 44 00 00 04 00 00 00 94 80 82 
00 07 cc 00 00 fa 44 00 00 04 00 00 00 94 80 82 
00 07 a4 00 00 fa 44 00 00 04 00 00 00 94 80 82 
00 07 b0 00 00 fa 44 00 00 04 00 00 00 94 80 82 
00 07 ad 00 00 fa 44 00 00 04 00 00 00 94 80 82 
00 07 8e 00 00 fa 44 00 00 04 00 00 00 94 80 82 
00 07 6e 00 00 fa 44 00 00 04 00 00 00 94 80 82 
00 07 c0 00 00 fa 44 00 00 04 00 00 00 94 80 82 
00 07 a7 00 00 fa 44 00 00 04 00 00 00 94 80 82 
00 07 d4 00 00 fa 44 00 00 04 00 00 00 94 80 82 
00 07 b3 00 00 fa 44 00 00 04 00 00 00 94 80 82 
00 07 e2 00 00 fa 44 00 00 04 00 00 00 94 80 82 
00 07 c5 00 00 fa 44 00 00 04 00 00 00 94 80 82 
00 07 de 00 00 fa 44 00 00 04 00 00 00 94 80 82 
00 07 d9 00 00 fa 44 00 00 04 00 00 00 94 80 82 
00 07 e8 00 00 fa 44 00 00 04 00 00 00 94 80 82 
00 07 e7 00 00 fa 44 00 00 04 00 00 00 94 80 82 
00 07 9f 00 00 fa 44 00 00 04 00 00 00 94 80 82 
00 07 d4 00 00 fa 44 00 00 04 00 00 00 94 80 82 
00 07 bf 00 00 fa 44 00 00 04 00 00 00 94 80 82 
00 07 c7 00 00 fa 44 00 00 04 00 00 00 94 80 82 
00 07 f4 00 00 fa 44 00 00 04 00 00 00 94 80 82 
00 07 f2 00 00 fa 44 00 00 04 00 00 00 94 80 82 
00 08 06 00 00 fa 44 00 00 04 00 00 00 94 80 82 
00 07 f3 00 00 fa 44 00 00 04 00 00 00 94 80 82 
00 07 cd 00 00 fa 44 00 00 04 00 00 00 94 80 82 
00 07 d2 00 00 fa 44 00 00 04 00 00 00 94 80 82 
00 07 d1 00 00 fa 44 00 00 04 00 00 00 94 80 82 
00 07 b1 00 00 fa 44 00 00 04 00 00 00 94 80 82 
00 07 bf 00 00 fa 44 00 00 04 00 00 00 94 80 82 
00 07 a5 00 00 fa 44 00 00 04 00 00 00 94 80 82 
00 07 db 00 00 fa 44 00 00 04 00 00 00 94 80 82 
00 08 07 00 00 fa 44 00 00 04 00 00 00 94 80 82 
00 07 b5 00 00 fa 44 00 00 04 00 00 00 94 80 82 
00 07 f7 00 00 fa 44 00 00 04 00 00 00 94 80 82 
00 07 8d 00 00 fa 44 00 00 04 00 00 00 94 80 82 
00 07 e2 00 00 fa 44 00 00 04 00 00 00 94 80 82 
00 07 f7 00 00 fa 44 00 00 04 00 00 00 94 80 82 
00 07 d4 00 00 fa 44 00 00 04 00 00 00 94 80 82 
00 07 e4 00 00 fa 44 00 00 04 00 00 00 94 80 82 
00 07 9a 00 00 fa 44 00 00 04 00 00 00 94 80 82 
00 07 e8 00 00 fa 44 00 00 04 00 00 00 94 80 82 
00 07 db 00 00 fa 44 00 00 04 00 00 00 94 80 82 
00 07 d4 00 00 fa 44 00 00 04 00 00 00 94 80 82 
00 07 cc 00 00 fa 44 00 00 04 00 00 00 94 80 82 
00 07 e3 00 00 fa 44 00 00 04 00 00 00 94 80 82 
00 07 8d 00 00 fa 44 00 00 04 00 00 00 94 80 82 
00 07 a6 00 00 fa 44 00 00 04 00 00 00 94 80 82 
00 07 d2 00 00 fa 44 00 00 04 00 00 00 94 80 82 
00 07 c3 00 00 fa 44 00 00 04 00 00 00 94 80 82 
00 07 bb 00 00 fa 44 00 00 04 00 00 00 94 80 82 
00 07 a3 00 00 fa 44 00 00 04 00 00 00 94 80 82 
00 07 c4 00 00 fa 44 00 00 04 00 00 00 94 80 82 
00 07 d7 00 00 fa 44 00 00 04 00 00 00 94 80 82 
00 07 bf 00 00 fa 44 00 00 04 00 00 00 94 80 82 
00 08 08 00 00 fa 44 00 00 04 00 00 00 94 80 82 
00 07 ea 00 00 fa 44 00 00 04 00 00 00 94 80 82 
00 08 07 00 00 fa 44 00 00 04 00 00 00 94 80 82 
00 07 fa 00 00 fa 44 00 00 04 00 00 00 94 80 82 
00 08 1b 00 00 fa 44 00 00 04 00 00 00 94 80 82 
00 07 d3 00 00 fa 44 00 00 04 00 00 00 94 80 82 
00 07 b1 00 00 fa 44 00 00 04 00 00 00 94 80 82 
00 08 03 00 00 fa 44 00 00 04 00 00 00 94 80 82 
00 07 f8 00 00 fa 44 00 00 04 00 00 00 94 80 82 
00 07 df 00 00 fa 44 00 00 04 00 00 00 94 80 82 
00 08 05 00 00 fa 44 00 00 04 00 00 00 94 80 82 
00 07 c5 00 00 fa 44 00 00 04 00 00 00 94 80 82 
00 07 f0 00 00 fa 44 00 00 04 00 00 00 94 80 82 
00 07 a6 00 00 fa 44 00 00 04 00 00 00 94 80 82 
00 07 b8 00 00 fa 44 00 00 04 00 00 00 94 80 82 
00 07 f8 00 00 fa 44 00 00 04 00 00 00 94 80 82 
00 07 af 00 00 fa 44 00 00 04 00 00 00 94 80 82 
00 07 c2 00 00 fa 44 00 00 04 00 00 00 94 80 82 
00 07 95 00 00 fa 44 00 00 04 00 00 00 94 80 82 
00 07 b7 00 00 fa 44 00 00 04 00 00 00 94 80 82 
00 07 f1 00 00 fa 44 00 00 04 00 00 00 94 80 82 
00 08 1d 00 00 fa 44 00 00 04 00 00 00 94 80 82 
00 08 14 00 00 fa 44 00 00 04 00 00 00 94 80 82 
00 07 e9 00 00 fa 44 00 00 04 00 00 00 94 80 82 
00 08 1c 00 00 fa 44 00 00 04 00 00 00 94 80 82 
00 08 05 00 00 fa 44 00 00 04 00 00 00 94 80 82 
00 08 25 00 00 fa 44 00 00 04 00 00 00 94 80 82 
00 08 13 00 00 fa 44 00 00 04 00 00 00 94 80 82 
00 07 a8 00 00 fa 44 00 00 04 00 00 00 94 80 82 
00 07 ee 00 00 fa 44 00 00 04 00 00 00 94 80 82 
00 07 d0 00 00 fa 44 00 00 04 00 00 00 94 80 82 
00 07 fa 00 00 fa 44 00 00 04 00 00 00 94 80 82 
00 08 10 00 00 fa 44 00 00 04 00 00 00 94 80 82 
00 07 e4 00 00 fa 44 00 00 04 00 00 00 94 80 82 
00 07 d2 00 00 fa 44 00 00 04 00 00 00 94 80 82 
00 07 cf 00 00 fa 44 00 00 04 00 00 00 94 80 82 
00 07 f3 00 00 fa 44 00 00 04 00 00 00 94 80 82 
00 08 17 00 00 fa 44 00 00 04 00 00 00 94 80 82 
00 07 ef 00 00 fa 44 00 00 04 00 00 00 94 80 82 
00 07 da 00 00 fa 44 00 00 04 00 00 00 94 80 82 
00 07 c1 00 00 fa 44 00 00 04 00 00 00 94 80 82 
00 07 bf 00 00 fa 44 00 00 04 00 00 00 94 80 82 
00 07 da 00 00 fa 44 00 00 04 00 00 00 94 80 82 
00 07 d9 00 00 fa 44 00 00 04 00 00 00 94 80 82 
00 08 05 00 00 fa 44 00 00 04 00 00 00 94 80 82 
00 08 14 00 00 fa 44 00 00 04 00 00 00 94 80 82 
00 08 09 00 00 fa 44 00 00 04 00 00 00 94 80 82 
00 07 f3 00 00 fa 44 00 00 04 00 00 00 94 80 82 
00 07 e8 00 00 fa 44 00 00 04 00 00 00 94 80 82 
00 07 b1 00 00 fa 44 00 00 04 00 00 00 94 80 82 
00 07 af 00 00 fa 44 00 00 04 00 00 00 94 80 82 
00 07 d5 00 00 fa 44 00 00 04 00 00 00 94 80 82 
00 07 e4 00 00 fa 44 00 00 04 00 00 00 94 80 82 
00 07 fd 00 00 fa 44 00 00 04 00 00 00 94 80 82 
00 07 c2 00 00 fa 44 00 00 04 00 00 00 94 80 82 
00 07 8a 00 00 fa 44 00 00 04 00 00 00 94 80 82 
00 07 e0 00 00 fa 44 00 00 04 00 00 00 94 80 82 
00 07 c6 00 00 fa 44 00 00 04 00 00 00 94 80 82 
00 07 da 00 00 fa 44 00 00 04 00 00 00 94 80 82 
00 08 17 00 00 fa 44 00 00 04 00 00 00 94 80 82 
00 07 f1 00 00 fa 44 00 00 04 00 00 00 94 80 82 
00 07 ce 00 00 fa 44 00 00 04 00 00 00 94 80 82 
00 07 b8 00 00 fa 44 00 00 04 00 00 00 94 80 82 
00 07 fd 00 00 fa 44 00 00 04 00 00 00 94 80 82 
00 07 f1 00 00 fa 44 00 00 04 00 00 00 94 80 82 
00 07 e2 00 00 fa 44 00 00 04 00 00 00 94 80 82 
00 07 e9 00 00 fa 44 00 00 04 00 00 00 94 80 82 
00 08 14 00 00 fa 44 00 00 04 00 00 00 94 80 82 
00 07 fb 00 00 fa 44 00 00 04 00 00 00 94 80 82 
00 07 f9 00 00 fa 44 00 00 04 00 00 00 94 80 82 
00 07 e7 00 00 fa 44 00 00 04 00 00 00 94 80 82 
00 07 e1 00 00 fa 44 00 00 04 00 00 00 94 80 82 
00 08 15 00 00 fa 44 00 00 04 00 00 00 94 80 82 
00 07 ea 00 00 fa 44 00 00 04 00 00 00 94 80 82 
00 07 d4 00 00 fa 44 00 00 04 00 00 00 94 80 82 
00 07 b1 00 00 fa 44 00 00 04 00 00 00 94 80 82 
00 07 c2 00 00 fa 44 00 00 04 00 00 00 94 80 82 
00 08 13 00 00 fa 44 00 00 04 00 00 00 94 80 82 
00 07 ff 00 00 fa 44 00 00 04 00 00 00 94 80 82 
00 07 a6 00 00 fa 44 00 00 04 00 00 00 94 80 82 
00 07 cf 00 00 fa 44 00 00 04 00 00 00 94 80 82 
00 07 c8 00 00 fa 44 00 00 04 00 00 00 94 80 82 
00 07 d5 00 00 fa 44 00 00 04 00 00 00 94 80 82 
00 07 8f 00 00 fa 44 00 00 04 00 00 00 94 80 82 
00 07 b3 00 00 fa 44 00 00 04 00 00 00 94 80 82 
00 07 fb 00 00 fa 44 00 00 04 00 00 00 94 80 82 
00 08 02 00 00 fa 44 00 00 04 00 00 00 94 80 82 
00 08 0d 00 00 fa 44 00 00 04 00 00 00 94 80 82 
00 07 d8 00 00 fa 44 00 00 04 00 00 00 94 80 82 
00 07 ac 00 00 fa 44 00 00 04 00 00 00 94 80 82 
00 07 a2 00 00 fa 44 00 00 04 00 00 00 94 80 82 
00 07 c6 00 00 fa 44 00 00 04 00 00 00 94 80 82 
00 07 b5 00 00 fa 44 00 00 04 00 00 00 94 80 82 
00 08 15 00 00 fa 44 00 00 04 00 00 00 94 80 82 
00 07 fc 00 00 fa 44 00 00 04 00 00 00 94 80 82 
00 07 d2 00 00 fa 44 00 00 04 00 00 00 94 80 82 
00 07 be 00 00 fa 44 00 00 04 00 00 00 94 80 82 
00 07 c7 00 00 fa 44 00 00 04 00 00 00 94 80 82 
00 07 ee 00 00 fa 44 00 00 04 00 00 00 94 80 82 
00 07 cc 00 00 fa 44 00 00 04 00 00 00 94 80 82 
00 07 d0 00 00 fa 44 00 00 04 00 00 00 94 80 82 
00 07 9e 00 00 fa 44 00 00 04 00 00 00 94 80 82 
00 07 b3 00 00 fa 44 00 00 04 00 00 00 94 80 82 
00 08 1b 00 00 fa 44 00 00 04 00 00 00 94 80 82 
00 07 c2 00 00 fa 44 00 00 04 00 00 00 94 80 82 
00 07 c8 00 00 fa 44 00 00 04 00 00 00 94 80 82 
00 07 c9 00 00 fa 44 00 00 04 00 00 00 94 80 82 
00 07 d1 00 00 fa 44 00 00 04 00 00 00 94 80 82 
00 07 c2 00 00 fa 44 00 00 04 00 00 00 94 80 82 
00 07 95 00 00 fa 44 00 00 04 00 00 00 94 80 82 
00 07 b8 00 00 fa 44 00 00 04 00 00 00 94 80 82 
00 07 93 00 00 fa 44 00 00 04 00 00 00 94 80 82 
00 07 a2 00 00 fa 44 00 00 04 00 00 00 94 80 82 
00 07 e5 00 00 fa 44 00 00 04 00 00 00 94 80 82 
00 07 cf 00 00 fa 44 00 00 04 00 00 00 94 80 82 
00 07 be 00 00 fa 44 00 00 04 00 00 00 94 80 82 
00 07 e9 00 00 fa 44 00 00 04 00 00 00 94 80 82 
00 07 b7 00 00 fa 44 00 00 04 00 00 00 94 80 82 
00 07 c8 00 00 fa 44 00 00 04 00 00 00 94 80 82 
00 08 10 00 00 fa 44 00 00 04 00 00 00 94 80 82 
00 07 c3 00 00 fa 44 00 00 04 00 00 00 94 80 82 
00 07 b6 00 00 fa 44 00 00 04 00 00 00 94 80 82 
00 07 c4 00 00 fa 44 00 00 04 00 00 00 94 80 82 
00 07 c6 00 00 fa 44 00 00 04 00 00 00 94 80 82 
00 07 b3 00 00 fa 44 00 00 04 00 00 00 94 80 82 
00 07 e5 00 00 fa 44 00 00 04 00 00 00 94 80 82 
00 07 e0 00 00 fa 44 00 00 04 00 00 00 94 80 82 
00 07 b9 00 00 fa 44 00 00 04 00 00 00 94 80 82 
00 07 b7 00 00 fa 44 00 00 04 00 00 00 94 80 82 
00 07 a6 00 00 fa 44 00 00 04 00 00 00 94 80 82 
00 07 c4 00 00 fa 44 00 00 04 00 00 00 94 80 82 
00 07 d1 00 00 fa 44 00 00 04 00 00 00 94 80 82 
00 07 9b 00 00 fa 44 00 00 04 00 00 00 94 80 82 
00 07 a5 00 00 fa 44 00 00 04 00 00 00 94 80 82 
00 07 df 00 00 fa 44 00 00 04 00 00 00 94 80 82 
00 07 e4 00 00 fa 44 00 00 04 00 00 00 94 80 82 
00 07 aa 00 00 fa 44 00 00 04 00 00 00 94 80 82 
00 07 dd 00 00 fa 44 00 00 04 00 00 00 94 80 82 
00 07 e3 00 00 fa 44 00 00 04 00 00 00 94 80 82 
00 07 ca 00 00 fa 44 00 00 04 00 00 00 94 80 82 
00 07 cf 00 00 fa 44 00 00 04 00 00 00 94 80 82 
00 07 ff 00 00 fa 44 00 00 04 00 00 00 94 80 82 
00 07 cf 00 00 fa 44 00 00 04 00 00 00 94 80 82 
00 07 d8 00 00 fa 44 00 00 04 00 00 00 94 80 82 
00 07 a3 00 00 fa 44 00 00 04 00 00 00 94 80 82 
00 07 86 00 00 fa 44 00 00 04 00 00 00 94 80 82 
00 07 c0 00 00 fa 44 00 00 04 00 00 00 94 80 82 
00 07 f5 00 00 fa 44 00 00 04 00 00 00 94 80 82 
00 07 be 00 00 fa 44 00 00 04 00 00 00 94 80 82 
00 07 c7 00 00 fa 44 00 00 04 00 00 00 94 80 82 
00 08 39 00 00 fa 44 00 00 04 00 00 00 94 80 82 
00 08 01 00 00 fa 44 00 00 04 00 00 00 94 80 82 
00 07 c6 00 00 fa 44 00 00 04 00 00 00 94 80 82 
00 07 94 00 00 fa 44 00 00 04 00 00 00 94 80 82 
00 07 ce 00 00 fa 44 00 00 04 00 00 00 94 80 82 
00 07 b4 00 00 fa 44 00 00 04 00 00 00 94 80 82 
00 07 c9 00 00 fa 44 00 00 04 00 00 00 94 80 82 
00 07 f0 00 00 fa 44 00 00 04 00 00 00 94 80 82 
00 07 c4 00 00 fa 44 00 00 04 00 00 00 94 80 82 
00 07 fb 00 00 fa 44 00 00 04 00 00 00 94 80 82 
00 07 d3 00 00 fa 44 00 00 04 00 00 00 94 80 82 
00 07 d0 00 00 fa 44 00 00 04 00 00 00 94 80 82 
00 07 e7 00 00 fa 44 00 00 04 00 00 00 94 80 82 
00 07 95 00 00 fa 44 00 00 04 00 00 00 94 80 82 
00 07 b7 00 00 fa 44 00 00 04 00 00 00 94 80 82 
00 07 bb 00 00 fa 44 00 00 04 00 00 00 94 80 82 
00 07 83 00 00 fa 44 00 00 04 00 00 00 94 80 82 
00 07 ac 00 00 fa 44 00 00 04 00 00 00 94 80 82 
00 07 ad 00 00 fa 44 00 00 04 00 00 00 94 80 82 
00 07 a6 00 00 fa 44 00 00 04 00 00 00 94 80 82 
00 07 b7 00 00 fa 44 00 00 04 00 00 00 94 80 82 
00 07 65 00 00 fa 44 00 00 04 00 00 00 94 80 82 
00 07 a1 00 00 fa 44 00 00 04 00 00 00 94 80 82 
00 07 a1 00 00 fa 44 00 00 04 00 00 00 94 80 82 
00 07 9c 00 00 fa 44 00 00 04 00 00 00 94 80 82 
00 07 85 00 00 fa 44 00 00 04 00 00 00 94 80 82 
00 07 b2 00 00 fa 44 00 00 04 00 00 00 94 80 82 
00 07 8d 00 00 fa 44 00 00 04 00 00 00 94 80 82 
00 07 af 00 00 fa 44 00 00 04 00 00 00 94 80 82 
00 07 e1 00 00 fa 44 00 00 04 00 00 00 94 80 82 
00 07 c1 00 00 fa 44 00 00 04 00 00 00 94 80 82 
00 07 d1 00 00 fa 44 00 00 04 00 00 00 94 80 82 
00 07 b6 00 00 fa 44 00 00 04 00 00 00 94 80 82 
00 07 ab 00 00 fa 44 00 00 04 00 00 00 94 80 82 
00 07 7e 00 00 fa 44 00 00 04 00 00 00 94 80 82 
00 07 8e 00 00 fa 44 00 00 04 00 00 00 94 80 82 
00 07 ad 00 00 fa 44 00 00 04 00 00 00 94 80 82 
00 07 a3 00 00 fa 44 00 00 04 00 00 00 94 80 82 
00 07 bc 00 00 fa 44 00 00 04 00 00 00 94 80 82 
00 07 d4 00 00 fa 44 00 00 04 00 00 00 94 80 82 
00 07 8c 00 00 fa 44 00 00 04 00 00 00 94 80 82 
00 07 9f 00 00 fa 44 00 00 04 00 00 00 94 80 82 
00 07 bf 00 00 fa 44 00 00 04 00 00 00 94 80 82 
00 07 97 00 00 fa 44 00 00 04 00 00 00 94 80 82 
00 07 be 00 00 fa 44 00 00 04 00 00 00 94 80 82 
00 07 95 00 00 fa 44 00 00 04 00 00 00 94 80 82 
00 07 70 00 00 fa 44 00 00 04 00 00 00 94 80 82 
00 07 a1 00 00 fa 44 00 00 04 00 00 00 94 80 82 
00 07 9a 00 00 fa 44 00 00 04 00 00 00 94 80 82 
00 07 bb 00 00 fa 44 00 00 04 00 00 00 94 80 82 
00 07 a5 00 00 fa 44 00 00 04 00 00 00 94 80 82 
00 07 cf 00 00 fa 44 00 00 04 00 00 00 94 80 82 
00 07 6e 00 00 fa 44 00 00 04 00 00 00 94 80 82 
00 07 cc 00 00 fa 44 00 00 04 00 00 00 94 80 82 
00 07 c9 00 00 fa 44 00 00 04 00 00 00 94 80 82 
00 07 95 00 00 fa 44 00 00 04 00 00 00 94 80 82 
00 07 ee 00 00 fa 44 00 00 04 00 00 00 94 80 82 
00 07 ac 00 00 fa 44 00 00 04 00 00 00 94 80 82 
00 07 73 00 00 fa 44 00 00 04 00 00 00 94 80 82 
00 07 d0 00 00 fa 44 00 00 04 00 00 00 94 80 82 
00 07 9c 00 00 fa 44 00 00 04 00 00 00 94 80 82 
00 07 e1 00 00 fa 44 00 00 04 00 00 00 94 80 82 
00 07 ab 00 00 fa 44 00 00 04 00 00 00 94 80 82 
00 07 b9 00 00 fa 44 00 00 04 00 00 00 94 80 82 
00 07 bb 00 00 fa 44 00 00 04 00 00 00 94 80 82 
00 07 ab 00 00 fa 44 00 00 04 00 00 00 94 80 82 
00 07 a6 00 00 fa 44 00 00 04 00 00 00 94 80 82 
00 07 da 00 00 fa 44 00 00 04 00 00 00 94 80 82 
00 07 be 00 00 fa 44 00 00 04 00 00 00 94 80 82 
00 07 a6 00 00 fa 44 00 00 04 00 00 00 94 80 82 
00 07 9e 00 00 fa 44 00 00 04 00 00 00 94 80 82 
00 07 a2 00 00 fa 44 00 00 04 00 00 00 94 80 82 
00 07 a5 00 00 fa 44 00 00 04 00 00 00 94 80 82 
00 07 a0 00 00 fa 44 00 00 04 00 00 00 94 80 82 
00 07 8a 00 00 fa 44 00 00 04 00 00 00 94 80 82 
00 07 d7 00 00 fa 44 00 00 04 00 00 00 94 80 82 
00 07 bd 00 00 fa 44 00 00 04 00 00 00 94 80 82 
00 08 01 00 00 fa 44 00 00 04 00 00 00 94 80 82 
00 07 f2 00 00 fa 44 00 00 04 00 00 00 94 80 82 
00 07 b7 00 00 fa 44 00 00 04 00 00 00 94 80 82 
00 07 c1 00 00 fa 44 00 00 04 00 00 00 94 80 82 
00 07 8c 00 00 fa 44 00 00 04 00 00 00 94 80 82 
00 07 8a 00 00 fa 44 00 00 04 00 00 00 94 80 82 
00 07 b1 00 00 fa 44 00 00 04 00 00 00 94 80 82 
00 07 9f 00 00 fa 44 00 00 04 00 00 00 94 80 82 
00 07 a5 00 00 fa 44 00 00 04 00 00 00 94 80 82 
00 07 7f 00 00 fa 44 00 00 04 00 00 00 94 80 82 
00 07 bc 00 00 fa 44 00 00 04 00 00 00 94 80 82 
00 07 8c 00 00 fa 44 00 00 04 00 00 00 94 80 82 
00 07 9c 00 00 fa 44 00 00 04 00 00 00 94 80 82 
00 07 b6 00 00 fa 44 00 00 04 00 00 00 94 80 82 
00 07 d6 00 00 fa 44 00 00 04 00 00 00 94 80 82 
00 07 a5 00 00 fa 44 00 00 04 00 00 00 94 80 82 
00 07 73 00 00 fa 44 00 00 04 00 00 00 94 80 82 
00 07 b0 00 00 fa 44 00 00 04 00 00 00 94 80 82 
00 07 ca 00 00 fa 44 00 00 04 00 00 00 94 80 82 
00 07 92 00 00 fa 44 00 00 04 00 00 00 94 80 82 
00 07 61 00 00 fa 44 00 00 04 00 00 00 94 80 82 
00 07 85 00 00 fa 44 00 00 04 00 00 00 94 80 82 
00 07 84 00 00 fa 44 00 00 04 00 00 00 94 80 82 
00 07 69 00 00 fa 44 00 00 04 00 00 00 94 80 82 
00 07 51 00 00 fa 44 00 00 04 00 00 00 94 80 82 
00 07 b1 00 00 fa 44 00 00 04 00 00 00 94 80 82 
00 07 80 00 00 fa 44 00 00 04 00 00 00 94 80 82 
00 07 60 00 00 fa 44 00 00 04 00 00 00 94 80 82 
00 07 8b 00 00 fa 44 00 00 04 00 00 00 94 80 82 
00 07 7e 00 00 fa 44 00 00 04 00 00 00 94 80 82 
00 07 54 00 00 fa 44 00 00 04 00 00 00 94 80 82 
00 07 a2 00 00 fa 44 00 00 04 00 00 00 94 80 82 
00 07 ce 00 00 fa 44 00 00 04 00 00 00 94 80 82 
00 07 86 00 00 fa 44 00 00 04 00 00 00 94 80 82 
00 07 9a 00 00 fa 44 00 00 04 00 00 00 94 80 82 
00 07 8b 00 00 fa 44 00 00 04 00 00 00 94 80 82 
00 07 c1 00 00 fa 44 00 00 04 00 00 00 94 80 82 
00 07 86 00 00 fa 44 00 00 04 00 00 00 94 80 82 
00 07 a1 00 00 fa 44 00 00 04 00 00 00 94 80 82 
00 07 8d 00 00 fa 44 00 00 04 00 00 00 94 80 82 
00 07 b0 00 00 fa 44 00 00 04 00 00 00 94 80 82 
00 07 73 00 00 fa 44 00 00 04 00 00 00 94 80 82 
00 07 85 00 00 fa 44 00 00 04 00 00 00 94 80 82 
00 07 62 00 00 fa 44 00 00 04 00 00 00 94 80 82 
00 07 91 00 00 fa 44 00 00 04 00 00 00 94 80 82 
00 07 ac 00 00 fa 44 00 00 04 00 00 00 94 80 82 
00 07 9d 00 00 fa 44 00 00 04 00 00 00 94 80 82 
00 07 a8 00 00 fa 44 00 00 04 00 00 00 94 80 82 
00 07 c0 00 00 fa 44 00 00 04 00 00 00 94 80 82 
00 07 a8 00 00 fa 44 00 00 04 00 00 00 94 80 82 
00 07 b0 00 00 fa 44 00 00 04 00 00 00 94 80 82 
00 07 88 00 00 fa 44 00 00 04 00 00 00 94 80 82 
00 07 8b 00 00 fa 44 00 00 04 00 00 00 94 80 82 
00 07 ad 00 00 fa 44 00 00 04 00 00 00 94 80 82 
00 07 84 00 00 fa 44 00 00 04 00 00 00 94 80 82 
00 07 ad 00 00 fa 44 00 00 04 00 00 00 94 80 82 
00 07 eb 00 00 fa 44 00 00 04 00 00 00 94 80 82 
00 07 b4 00 00 fa 44 00 00 04 00 00 00 94 80 82 
00 07 ae 00 00 fa 44 00 00 04 00 00 00 94 80 82 
00 07 b0 00 00 fa 44 00 00 04 00 00 00 94 80 82 
00 07 bb 00 00 fa 44 00 00 04 00 00 00 94 80 82 
00 07 9b 00 00 fa 44 00 00 04 00 00 00 94 80 82 
00 07 74 00 00 fa 44 00 00 04 00 00 00 94 80 82 
00 07 a8 00 00 fa 44 00 00 04 00 00 00 94 80 82 
00 07 b9 00 00 fa 44 00 00 04 00 00 00 94 80 82 
00 07 e0 00 00 fa 44 00 00 04 00 00 00 94 80 82 
00 07 df 00 00 fa 44 00 00 04 00 00 00 94 80 82 
00 08 16 00 00 fa 44 00 00 04 00 00 00 94 80 82 
00 07 8e 00 00 fa 44 00 00 04 00 00 00 94 80 82 
00 07 ad 00 00 fa 44 00 00 04 00 00 00 94 80 82 
00 07 a5 00 00 fa 44 00 00 04 00 00 00 94 80 82 
00 07 a6 00 00 fa 44 00 00 04 00 00 00 94 80 82 
00 07 e5 00 00 fa 44 00 00 04 00 00 00 94 80 82 
00 07 e2 00 00 fa 44 00 00 04 00 00 00 94 80 82 
00 07 b5 00 00 fa 44 00 00 04 00 00 00 94 80 82 
00 07 aa 00 00 fa 44 00 00 04 00 00 00 94 80 82 
00 07 c3 00 00 fa 44 00 00 04 00 00 00 94 80 82 
00 07 a8 00 00 fa 44 00 00 04 00 00 00 94 80 82 
00 07 b9 00 00 fa 44 00 00 04 00 00 00 94 80 82 
00 07 db 00 00 fa 44 00 00 04 00 00 00 94 80 82 
00 07 bd 00 00 fa 44 00 00 04 00 00 00 94 80 82 
00 07 c5 00 00 fa 44 00 00 04 00 00 00 94 80 82 
00 07 b0 00 00 fa 44 00 00 04 00 00 00 94 80 82 
00 07 ef 00 00 fa 44 00 00 04 00 00 00 94 80 82 
00 07 b5 00 00 fa 44 00 00 04 00 00 00 94 80 82 
00 07 cd 00 00 fa 44 00 00 04 00 00 00 94 80 82 
00 07 93 00 00 fa 44 00 00 04 00 00 00 94 80 82 
00 07 cf 00 00 fa 44 00 00 04 00 00 00 94 80 82 
00 07 c3 00 00 fa 44 00 00 04 00 00 00 94 80 82 
00 07 6a 00 00 fa 44 00 00 04 00 00 00 94 80 82 
00 07 c8 00 00 fa 44 00 00 04 00 00 00 94 80 82 
00 07 e8 00 00 fa 44 00 00 04 00 00 00 94 80 82 
00 07 a0 00 00 fa 44 00 00 04 00 00 00 94 80 82 
00 07 b5 00 00 fa 44 00 00 04 00 00 00 94 80 82 
00 07 b3 00 00 fa 44 00 00 04 00 00 00 94 80 82 
00 07 d1 00 00 fa 44 00 00 04 00 00 00 94 80 82 
00 07 ac 00 00 fa 44 00 00 04 00 00 00 94 80 82 
00 07 8c 00 00 fa 44 00 00 04 00 00 00 94 80 82 
00 07 d2 00 00 fa 44 00 00 04 00 00 00 94 80 82 
00 07 e5 00 00 fa 44 00 00 04 00 00 00 94 80 82 
00 07 d4 00 00 fa 44 00 00 04 00 00 00 94 80 82 
00 07 b4 00 00 fa 44 00 00 04 00 00 00 94 80 82 
00 07 db 00 00 fa 44 00 00 04 00 00 00 94 80 82 
00 07 9f 00 00 fa 44 00 00 04 00 00 00 94 80 82 
00 07 8a 00 00 fa 44 00 00 04 00 00 00 94 80 82 
00 07 7c 00 00 fa 44 00 00 04 00 00 00 94 80 82 
00 07 9d 00 00 fa 44 00 00 04 00 00 00 94 80 82 
00 07 82 00 00 fa 44 00 00 04 00 00 00 94 80 82 
00 07 7e 00 00 fa 44 00 00 04 00 00 00 94 80 82 
00 07 d5 00 00 fa 44 00 00 04 00 00 00 94 80 82 
00 07 b5 00 00 fa 44 00 00 04 00 00 00 94 80 82 
00 07 bf 00 00 fa 44 00 00 04 00 00 00 94 80 82 
00 07 a4 00 00 fa 44 00 00 04 00 00 00 94 80 82 
00 07 ca 00 00 fa 44 00 00 04 00 00 00 94 80 82 
00 07 bb 00 00 fa 44 00 00 04 00 00 00 94 80 82 
00 07 97 00 00 fa 44 00 00 04 00 00 00 94 80 82 
00 07 d9 00 00 fa 44 00 00 04 00 00 00 94 80 82 
00 07 db 00 00 fa 44 00 00 04 00 00 00 94 80 82 
00 07 b8 00 00 fa 44 00 00 04 00 00 00 94 80 82 
00 07 e6 00 00 fa 44 00 00 04 00 00 00 94 80 82 
00 07 99 00 00 fa 44 00 00 04 00 00 00 94 80 82 
00 07 c2 00 00 fa 44 00 00 04 00 00 00 94 80 82 
00 07 a7 00 00 fa 44 00 00 04 00 00 00 94 80 82 
00 07 92 00 00 fa 44 00 00 04 00 00 00 94 80 82 
00 07 be 00 00 fa 44 00 00 04 00 00 00 94 80 82 
00 07 d0 00 00 fa 44 00 00 04 00 00 00 94 80 82 
00 07 9b 00 00 fa 44 00 00 04 00 00 00 94 80 82 
00 07 80 00 00 fa 44 00 00 04 00 00 00 94 80 82 
00 07 ca 00 00 fa 44 00 00 04 00 00 00 94 80 82 
00 07 cd 00 00 fa 44 00 00 04 00 00 00 94 80 82 
00 07 7b 00 00 fa 44 00 00 04 00 00 00 94 80 82 
00 07 a7 00 00 fa 44 00 00 04 00 00 00 94 80 82 
00 07 99 00 00 fa 44 00 00 04 00 00 00 94 80 82 
00 07 9d 00 00 fa 44 00 00 04 00 00 00 94 80 82 
00 07 a0 00 00 fa 44 00 00 04 00 00 00 94 80 82 
00 07 a3 00 00 fa 44 00 00 04 00 00 00 94 80 82 
00 07 c0 00 00 fa 44 00 00 04 00 00 00 94 80 82 
00 07 bc 00 00 fa 44 00 00 04 00 00 00 94 80 82 
00 07 9c 00 00 fa 44 00 00 04 00 00 00 94 80 82 
00 07 b0 00 00 fa 44 00 00 04 00 00 00 94 80 82 
00 07 b5 00 00 fa 44 00 00 04 00 00 00 94 80 82 
00 07 cf 00 00 fa 44 00 00 04 00 00 00 94 80 82 
00 07 b8 00 00 fa 44 00 00 04 00 00 00 94 80 82 
00 07 c6 00 00 fa 44 00 00 04 00 00 00 94 80 82 
00 07 93 00 00 fa 44 00 00 04 00 00 00 94 80 82 
00 07 97 00 00 fa 44 00 00 04 00 00 00 94 80 82 
00 07 86 00 00 fa 44 00 00 04 00 00 00 94 80 82 
00 07 78 00 00 fa 44 00 00 04 00 00 00 94 80 82 
00 07 82 00 00 fa 44 00 00 04 00 00 00 94 80 82 
00 07 78 00 00 fa 44 00 00 04 00 00 00 94 80 82 
00 07 58 00 00 fa 44 00 00 04 00 00 00 94 80 82 
00 07 b0 00 00 fa 44 00 00 04 00 00 00 94 80 82 
00 07 ac 00 00 fa 44 00 00 04 00 00 00 94 80 82 
00 07 67 00 00 fa 44 00 00 04 00 00 00 94 80 82 
00 07 a3 00 00 fa 44 00 00 04 00 00 00 94 80 82 
00 07 97 00 00 fa 44 00 00 04 00 00 00 94 80 82 
00 07 93 00 00 fa 44 00 00 04 00 00 00 94 80 82 
00 07 b1 00 00 fa 44 00 00 04 00 00 00 94 80 82 
00 07 84 00 00 fa 44 00 00 04 00 00 00 94 80 82 
00 07 67 00 00 fa 44 00 00 04 00 00 00 94 80 82 
00 07 9d 00 00 fa 44 00 00 04 00 00 00 94 80 82 
00 07 c6 00 00 fa 44 00 00 04 00 00 00 94 80 82 
00 07 9f 00 00 fa 44 00 00 04 00 00 00 94 80 82 
00 07 55 00 00 fa 44 00 00 04 00 00 00 94 80 82 
00 07 89 00 00 fa 44 00 00 04 00 00 00 94 80 82 
00 07 67 00 00 fa 44 00 00 04 00 00 00 94 80 82 
00 07 8d 00 00 fa 44 00 00 04 00 00 00 94 80 82 
00 07 34 00 00 fa 44 00 00 04 00 00 00 94 80 82 
00 07 8f 00 00 fa 44 00 00 04 00 00 00 94 80 82 
00 07 57 00 00 fa 44 00 00 04 00 00 00 94 80 82 
00 07 79 00 00 fa 44 00 00 04 00 00 00 94 80 82 
00 07 a3 00 00 fa 44 00 00 04 00 00 00 94 80 82 
00 07 7d 00 00 fa 44 00 00 04 00 00 00 94 80 82 
00 07 9d 00 00 fa 44 00 00 04 00 00 00 94 80 82 
00 07 99 00 00 fa 44 00 00 04 00 00 00 94 80 82 
00 07 54 00 00 fa 44 00 00 04 00 00 00 94 80 82 
00 07 79 00 00 fa 44 00 00 04 00 00 00 94 80 82 
00 07 25 00 00 fa 44 00 00 04 00 00 00 94 80 82 
00 07 8e 00 00 fa 44 00 00 04 00 00 00 94 80 82 
00 07 7b 00 00 fa 44 00 00 04 00 00 00 94 80 82 
00 07 a0 00 00 fa 44 00 00 04 00 00 00 94 80 82 
00 07 b3 00 00 fa 44 00 00 04 00 00 00 94 80 82 
00 07 7a 00 00 fa 44 00 00 04 00 00 00 94 80 82 
00 07 bc 00 00 fa 44 00 00 04 00 00 00 94 80 82 
00 07 82 00 00 fa 44 00 00 04 00 00 00 94 80 82 
00 07 9d 00 00 fa 44 00 00 04 00 00 00 94 80 82 
00 07 a1 00 00 fa 44 00 00 04 00 00 00 94 80 82 
00 07 9e 00 00 fa 44 00 00 04 00 00 00 94 80 82 
00 07 bf 00 00 fa 44 00 00 04 00 00 00 94 80 82 
00 07 a7 00 00 fa 44 00 00 04 00 00 00 94 80 82 
00 07 cf 00 00 fa 44 00 00 04 00 00 00 94 80 82 
00 07 c6 00 00 fa 44 00 00 04 00 00 00 94 80 82 
00 07 99 00 00 fa 44 00 00 04 00 00 00 94 80 82 
00 07 96 00 00 fa 44 00 00 04 00 00 00 94 80 82 
00 07 ac 00 00 fa 44 00 00 04 00 00 00 94 80 82 
00 07 a1 00 00 fa 44 00 00 04 00 00 00 94 80 82 
00 07 a0 00 00 fa 44 00 00 04 00 00 00 94 80 82 
00 07 cd 00 00 fa 44 00 00 04 00 00 00 94 80 82 
00 07 46 00 00 fa 44 00 00 04 00 00 00 94 80 82 
00 07 6b 00 00 fa 44 00 00 04 00 00 00 94 80 82 
00 07 88 00 00 fa 44 00 00 04 00 00 00 94 80 82 
00 07 80 00 00 fa 44 00 00 04 00 00 00 94 80 82 
00 07 8e 00 00 fa 44 00 00 04 00 00 00 94 80 82 
00 07 36 00 00 fa 44 00 00 04 00 00 00 94 80 82 
00 07 54 00 00 fa 44 00 00 04 00 00 00 94 80 82 
00 07 56 00 00 fa 44 00 00 04 00 00 00 94 80 82 
00 07 67 00 00 fa 44 00 00 04 00 00 00 94 80 82 
00 07 7f 00 00 fa 44 00 00 04 00 00 00 94 80 82 
00 07 72 00 00 fa 44 00 00 04 00 00 00 94 80 82 
00 07 5e 00 00 fa 44 00 00 04 00 00 00 94 80 82 
00 07 7a 00 00 fa 44 00 00 04 00 00 00 94 80 82 
00 07 5e 00 00 fa 44 00 00 04 00 00 00 94 80 82 
00 07 52 00 00 fa 44 00 00 04 00 00 00 94 80 82 
00 07 79 00 00 fa 44 00 00 04 00 00 00 94 80 82 
00 07 93 00 00 fa 44 00 00 04 00 00 00 94 80 82 
00 07 84 00 00 fa 44 00 00 04 00 00 00 94 80 82 
00 07 88 00 00 fa 44 00 00 04 00 00 00 94 80 82 
00 07 51 00 00 fa 44 00 00 04 00 00 00 94 80 82 
00 07 cf 00 00 fa 44 00 00 04 00 00 00 94 80 82 
00 07 83 00 00 fa 44 00 00 04 00 00 00 94 80 82 
00 07 71 00 00 fa 44 00 00 04 00 00 00 94 80 82 
00 07 a8 00 00 fa 44 00 00 04 00 00 00 94 80 82 
00 07 81 00 00 fa 44 00 00 04 00 00 00 94 80 82 
00 07 78 00 00 fa 44 00 00 04 00 00 00 94 80 82 
00 07 97 00 00 fa 44 00 00 04 00 00 00 94 80 82 
00 07 80 00 00 fa 44 00 00 04 00 00 00 94 80 82 
00 07 67 00 00 fa 44 00 00 04 00 00 00 94 80 82 
00 07 89 00 00 fa 44 00 00 04 00 00 00 94 80 82 
00 07 6f 00 00 fa 44 00 00 04 00 00 00 94 80 82 
00 07 74 00 00 fa 44 00 00 04 00 00 00 94 80 82 
00 07 73 00 00 fa 44 00 00 04 00 00 00 94 80 82 
00 07 96 00 00 fa 44 00 00 04 00 00 00 94 80 82 
00 07 7b 00 00 fa 44 00 00 04 00 00 00 94 80 82 
00 07 71 00 00 fa 44 00 00 04 00 00 00 94 80 82 
00 07 82 00 00 fa 44 00 00 04 00 00 00 94 80 82 
00 07 93 00 00 fa 44 00 00 04 00 00 00 94 80 82 
00 07 b1 00 00 fa 44 00 00 04 00 00 00 94 80 82 
00 07 c1 00 00 fa 44 00 00 04 00 00 00 94 80 82 
00 07 ac 00 00 fa 44 00 00 04 00 00 00 94 80 82 
00 07 7b 00 00 fa 44 00 00 04 00 00 00 94 80 82 
00 07 ad 00 00 fa 44 00 00 04 00 00 00 94 80 82 
00 07 77 00 00 fa 44 00 00 04 00 00 00 94 80 82 
00 07 99 00 00 fa 44 00 00 04 00 00 00 94 80 82 
00 07 4e 00 00 fa 44 00 00 04 00 00 00 94 80 82 
00 07 9a 00 00 fa 44 00 00 04 00 00 00 94 80 82 
00 07 5c 00 00 fa 44 00 00 04 00 00 00 94 80 82 
00 07 69 00 00 fa 44 00 00 04 00 00 00 94 80 82 
00 07 a3 00 00 fa 44 00 00 04 00 00 00 94 80 82 
00 07 93 00 00 fa 44 00 00 04 00 00 00 94 80 82 
00 07 93 00 00 fa 44 00 00 04 00 00 00 94 80 82 
00 07 6c 00 00 fa 44 00 00 04 00 00 00 94 80 82 
00 07 82 00 00 fa 44 00 00 04 00 00 00 94 80 82 
00 07 7a 00 00 fa 44 00 00 04 00 00 00 94 80 82 
00 07 7c 00 00 fa 44 00 00 04 00 00 00 94 80 82 
00 07 89 00 00 fa 44 00 00 04 00 00 00 94 80 82 
00 07 69 00 00 fa 44 00 00 04 00 00 00 94 80 82 
00 07 37 00 00 fa 44 00 00 04 00 00 00 94 80 82 
00 07 71 00 00 fa 44 00 00 04 00 00 00 94 80 82 
00 07 55 00 00 fa 44 00 00 04 00 00 00 94 80 82 
00 07 94 00 00 fa 44 00 00 04 00 00 00 94 80 82 
00 07 80 00 00 fa 44 00 00 04 00 00 00 94 80 82 
00 07 a0 00 00 fa 44 00 00 04 00 00 00 94 80 82 
00 07 79 00 00 fa 44 00 00 04 00 00 00 94 80 82 
00 07 b0 00 00 fa 44 00 00 04 00 00 00 94 80 82 
00 07 b0 00 00 fa 44 00 00 04 00 00 00 94 80 82 
00 07 d0 00 00 fa 44 00 00 04 00 00 00 94 80 82 
00 07 a7 00 00 fa 44 00 00 04 00 00 00 94 80 82 
00 07 8e 00 00 fa 44 00 00 04 00 00 00 94 80 82 
00 07 b2 00 00 fa 44 00 00 04 00 00 00 94 80 82 
00 07 89 00 00 fa 44 00 00 04 00 00 00 94 80 82 
00 07 ab 00 00 fa 44 00 00 04 00 00 00 94 80 82 
00 07 a7 00 00 fa 44 00 00 04 00 00 00 94 80 82 
00 07 7f 00 00 fa 44 00 00 04 00 00 00 94 80 82 
00 07 a5 00 00 fa 44 00 00 04 00 00 00 94 80 82 
00 07 8a 00 00 fa 44 00 00 04 00 00 00 94 80 82 
00 07 9d 00 00 fa 44 00 00 04 00 00 00 94 80 82 
00 07 a6 00 00 fa 44 00 00 04 00 00 00 94 80 82 
00 07 88 00 00 fa 44 00 00 04 00 00 00 94 80 82 
00 07 6d 00 00 fa 44 00 00 04 00 00 00 94 80 82 
00 07 a3 00 00 fa 44 00 00 04 00 00 00 94 80 82 
00 07 79 00 00 fa 44 00 00 04 00 00 00 94 80 82 
00 07 60 00 00 fa 44 00 00 04 00 00 00 94 80 82 
00 07 7b 00 00 fa 44 00 00 04 00 00 00 94 80 82 
00 07 92 00 00 fa 44 00 00 04 00 00 00 94 80 82 
00 07 8b 00 00 fa 44 00 00 04 00 00 00 94 80 82 
00 07 8c 00 00 fa 44 00 00 04 00 00 00 94 80 82 
00 07 8e 00 00 fa 44 00 00 04 00 00 00 94 80 82 
00 07 c5 00 00 fa 44 00 00 04 00 00 00 94 80 82 
00 07 7a 00 00 fa 44 00 00 04 00 00 00 94 80 82 
00 07 74 00 00 fa 44 00 00 04 00 00 00 94 80 82 
00 07 43 00 00 fa 44 00 00 04 00 00 00 94 80 82 
00 07 a6 00 00 fa 44 00 00 04 00 00 00 94 80 82 
00 07 a8 00 00 fa 44 00 00 04 00 00 00 94 80 82 
00 07 b7 00 00 fa 44 00 00 04 00 00 00 94 80 82 
00 07 9b 00 00 fa 44 00 00 04 00 00 00 94 80 82 
00 07 a6 00 00 fa 44 00 00 04 00 00 00 94 80 82 
00 07 ab 00 00 fa 44 00 00 04 00 00 00 94 80 82 
00 07 bf 00 00 fa 44 00 00 04 00 00 00 94 80 82 
00 07 77 00 00 fa 44 00 00 04 00 00 00 94 80 82 
00 07 82 00 00 fa 44 00 00 04 00 00 00 94 80 82 
00 07 97 00 00 fa 44 00 00 04 00 00 00 94 80 82 
00 07 af 00 00 fa 44 00 00 04 00 00 00 94 80 82 
00 07 96 00 00 fa 44 00 00 04 00 00 00 94 80 82 
00 07 9c 00 00 fa 44 00 00 04 00 00 00 94 80 82 
00 07 bc 00 00 fa 44 00 00 04 00 00 00 94 80 82 
00 07 93 00 00 fa 44 00 00 04 00 00 00 94 80 82 
00 07 3d 00 00 fa 44 00 00 04 00 00 00 94 80 82 
00 07 73 00 00 fa 44 00 00 04 00 00 00 94 80 82 
00 07 ad 00 00 fa 44 00 00 04 00 00 00 94 80 82 
00 07 5f 00 00 fa 44 00 00 04 00 00 00 94 80 82 
00 07 95 00 00 fa 44 00 00 04 00 00 00 94 80 82 
00 07 ac 00 00 fa 44 00 00 04 00 00 00 94 80 82 
00 07 a4 00 00 fa 44 00 00 04 00 00 00 94 80 82 
00 07 8f 00 00 fa 44 00 00 04 00 00 00 94 80 82 
00 07 34 00 00 fa 44 00 00 04 00 00 00 94 80 82 
00 07 6e 00 00 fa 44 00 00 04 00 00 00 94 80 82 
00 07 af 00 00 fa 44 00 00 04 00 00 00 94 80 82 
00 07 90 00 00 fa 44 00 00 04 00 00 00 94 80 82 
00 07 9f 00 00 fa 44 00 00 04 00 00 00 94 80 82 
00 07 69 00 00 fa 44 00 00 04 00 00 00 94 80 82 
00 07 7d 00 00 fa 44 00 00 04 00 00 00 94 80 82 
00 07 8e 00 00 fa 44 00 00 04 00 00 00 94 80 82 
00 07 8b 00 00 fa 44 00 00 04 00 00 00 94 80 82 
00 07 81 00 00 fa 44 00 00 04 00 00 00 94 80 82 
00 07 7f 00 00 fa 44 00 00 04 00 00 00 94 80 82 
00 07 ae 00 00 fa 44 00 00 04 00 00 00 94 80 82 
00 07 97 00 00 fa 44 00 00 04 00 00 00 94 80 82 
00 07 7a 00 00 fa 44 00 00 04 00 00 00 94 80 82 
00 07 ae 00 00 fa 44 00 00 04 00 00 00 94 80 82 
00 07 cd 00 00 fa 44 00 00 04 00 00 00 94 80 82 
00 07 a2 00 00 fa 44 00 00 04 00 00 00 94 80 82 
00 07 bc 00 00 fa 44 00 00 04 00 00 00 94 80 82 
00 07 aa 00 00 fa 44 00 00 04 00 00 00 94 80 82 
00 07 b5 00 00 fa 44 00 00 04 00 00 00 94 80 82 
00 07 99 00 00 fa 44 00 00 04 00 00 00 94 80 82 
00 07 a7 00 00 fa 44 00 00 04 00 00 00 94 80 82 
00 07 e0 00 00 fa 44 00 00 04 00 00 00 94 80 82 
00 07 c0 00 00 fa 44 00 00 04 00 00 00 94 80 82 
00 07 94 00 00 fa 44 00 00 04 00 00 00 94 80 82 
00 07 86 00 00 fa 44 00 00 04 00 00 00 94 80 82 
00 07 b3 00 00 fa 44 00 00 04 00 00 00 94 80 82 
00 07 9c 00 00 fa 44 00 00 04 00 00 00 94 80 82 
00 07 a1 00 00 fa 44 00 00 04 00 00 00 94 80 82 
00 07 bc 00 00 fa 44 00 00 04 00 00 00 94 80 82 
00 07 96 00 00 fa 44 00 00 04 00 00 00 94 80 82 
00 07 a5 00 00 fa 44 00 00 04 00 00 00 94 80 82 
00 07 5b 00 00 fa 44 00 00 04 00 00 00 94 80 82 
00 07 c1 00 00 fa 44 00 00 04 00 00 00 94 80 82 
00 07 a4 00 00 fa 44 00 00 04 00 00 00 94 80 82 
00 07 94 00 00 fa 44 00 00 04 00 00 00 94 80 82 
00 07 6a 00 00 fa 44 00 00 04 00 00 00 94 80 82 
00 07 82 00 00 fa 44 00 00 04 00 00 00 94 80 82 
00 07 62 00 00 fa 44 00 00 04 00 00 00 94 80 82 
00 07 63 00 00 fa 44 00 00 04 00 00 00 94 80 82 
00 07 80 00 00 fa 44 00 00 04 00 00 00 94 80 82 
00 07 da 00 00 fa 44 00 00 04 00 00 00 94 80 82 
00 07 bb 00 00 fa 44 00 00 04 00 00 00 94 80 82 
00 07 d6 00 00 fa 44 00 00 04 00 00 00 94 80 82 
00 07 96 00 00 fa 44 00 00 04 00 00 00 94 80 82 
00 07 a8 00 00 fa 44 00 00 04 00 00 00 94 80 82 
00 07 bc 00 00 fa 44 00 00 04 00 00 00 94 80 82 
00 07 e9 00 00 fa 44 00 00 04 00 00 00 94 80 82 
00 07 e0 00 00 fa 44 00 00 04 00 00 00 94 80 82 
00 07 d2 00 00 fa 44 00 00 04 00 00 00 94 80 82 
00 07 ab 00 00 fa 44 00 00 04 00 00 00 94 80 82 
00 07 a3 00 00 fa 44 00 00 04 00 00 00 94 80 82 
00 07 86 00 00 fa 44 00 00 04 00 00 00 94 80 82 
00 07 b8 00 00 fa 44 00 00 04 00 00 00 94 80 82 
00 07 a0 00 00 fa 44 00 00 04 00 00 00 94 80 82 
00 07 97 00 00 fa 44 00 00 04 00 00 00 94 80 82 
00 07 ce 00 00 fa 44 00 00 04 00 00 00 94 80 82 
00 07 c5 00 00 fa 44 00 00 04 00 00 00 94 80 82 
00 07 ab 00 00 fa 44 00 00 04 00 00 00 94 80 82 
00 07 86 00 00 fa 44 00 00 04 00 00 00 94 80 82 
00 07 b9 00 00 fa 44 00 00 04 00 00 00 94 80 82 
00 07 b9 00 00 fa 44 00 00 04 00 00 00 94 80 82 
00 07 84 00 00 fa 44 00 00 04 00 00 00 94 80 82 
00 07 99 00 00 fa 44 00 00 04 00 00 00 94 80 82 
00 07 96 00 00 fa 44 00 00 04 00 00 00 94 80 82 
00 07 a1 00 00 fa 44 00 00 04 00 00 00 94 80 82 
00 07 ab 00 00 fa 44 00 00 04 00 00 00 94 80 82 
00 07 b4 00 00 fa 44 00 00 04 00 00 00 94 80 82 
00 07 c0 00 00 fa 44 00 00 04 00 00 00 94 80 82 
00 07 9d 00 00 fa 44 00 00 04 00 00 00 94 80 82 
00 07 8e 00 00 fa 44 00 00 04 00 00 00 94 80 82 
00 07 85 00 00 fa 44 00 00 04 00 00 00 94 80 82 
00 07 a6 00 00 fa 44 00 00 04 00 00 00 94 80 82 
00 07 7e 00 00 fa 44 00 00 04 00 00 00 94 80 82 
00 07 8d 00 00 fa 44 00 00 04 00 00 00 94 80 82 
00 07 ad 00 00 fa 44 00 00 04 00 00 00 94 80 82 
00 07 b7 00 00 fa 44 00 00 04 00 00 00 94 80 82 
00 07 ca 00 00 fa 44 00 00 04 00 00 00 94 80 82 
00 07 73 00 00 fa 44 00 00 04 00 00 00 94 80 82 
00 07 a7 00 00 fa 44 00 00 04 00 00 00 94 80 82 
00 07 bd 00 00 fa 44 00 00 04 00 00 00 94 80 82 
00 07 82 00 00 fa 44 00 00 04 00 00 00 94 80 82 
00 07 af 00 00 fa 44 00 00 04 00 00 00 94 80 82 
00 07 8f 00 00 fa 44 00 00 04 00 00 00 94 80 82 
00 07 94 00 00 fa 44 00 00 04 00 00 00 94 80 82 
00 07 8b 00 00 fa 44 00 00 04 00 00 00 94 80 82 
00 07 94 00 00 fa 44 00 00 04 00 00 00 94 80 82 
00 07 7d 00 00 fa 44 00 00 04 00 00 00 94 80 82 
00 07 aa 00 00 fa 44 00 00 04 00 00 00 94 80 82 
00 07 95 00 00 fa 44 00 00 04 00 00 00 94 80 82 
00 07 f5 00 00 fa 44 00 00 04 00 00 00 94 80 82 
00 07 9e 00 00 fa 44 00 00 04 00 00 00 94 80 82 
00 07 91 00 00 fa 44 00 00 04 00 00 00 94 80 82 
00 07 c4 00 00 fa 44 00 00 04 00 00 00 94 80 82 
00 07 7f 00 00 fa 44 00 00 04 00 00 00 94 80 82 
00 07 91 00 00 fa 44 00 00 04 00 00 00 94 80 82 
00 07 aa 00 00 fa 44 00 00 04 00 00 00 94 80 82 
00 07 7f 00 00 fa 44 00 00 04 00 00 00 94 80 82 
00 07 af 00 00 fa 44 00 00 04 00 00 00 94 80 82 
00 07 e3 00 00 fa 44 00 00 04 00 00 00 94 80 82 
00 07 a8 00 00 fa 44 00 00 04 00 00 00 94 80 82 
00 07 a3 00 00 fa 44 00 00 04 00 00 00 94 80 82 
00 07 6b 00 00 fa 44 00 00 04 00 00 00 94 80 82 
00 07 5a 00 00 fa 44 00 00 04 00 00 00 94 80 82 
00 07 70 00 00 fa 44 00 00 04 00 00 00 94 80 82 
00 07 7e 00 00 fa 44 00 00 04 00 00 00 94 80 82 
00 07 9b 00 00 fa 44 00 00 04 00 00 00 94 80 82 
00 07 8f 00 00 fa 44 00 00 04 00 00 00 94 80 82 
00 07 8e 00 00 fa 44 00 00 04 00 00 00 94 80 82 
00 07 89 00 00 fa 44 00 00 04 00 00 00 94 80 82 
00 07 84 00 00 fa 44 00 00 04 00 00 00 94 80 82 
00 07 65 00 00 fa 44 00 00 04 00 00 00 94 80 82 
00 07 8f 00 00 fa 44 00 00 04 00 00 00 94 80 82 
00 07 6e 00 00 fa 44 00 00 04 00 00 00 94 80 82 
00 07 37 00 00 fa 44 00 00 04 00 00 00 94 80 82 
00 07 a8 00 00 fa 44 00 00 04 00 00 00 94 80 82 
00 07 6e 00 00 fa 44 00 00 04 00 00 00 94 80 82 
00 07 4f 00 00 fa 44 00 00 04 00 00 00 94 80 82 
00 07 6e 00 00 fa 44 00 00 04 00 00 00 94 80 82 
00 07 73 00 00 fa 44 00 00 04 00 00 00 94 80 82 
00 07 58 00 00 fa 44 00 00 04 00 00 00 94 80 82 
00 07 70 00 00 fa 44 00 00 04 00 00 00 94 80 82 
00 07 83 00 00 fa 44 00 00 04 00 00 00 94 80 82 
00 07 65 00 00 fa 44 00 00 04 00 00 00 94 80 82 
00 07 9d 00 00 fa 44 00 00 04 00 00 00 94 80 82 
00 07 5a 00 00 fa 44 00 00 04 00 00 00 94 80 82 
00 07 80 00 00 fa 44 00 00 04 00 00 00 94 80 82 
00 07 8e 00 00 fa 44 00 00 04 00 00 00 94 80 82 
00 07 9c 00 00 fa 44 00 00 04 00 00 00 94 80 82 
00 07 cf 00 00 fa 44 00 00 04 00 00 00 94 80 82 
00 07 af 00 00 fa 44 00 00 04 00 00 00 94 80 82 
00 07 51 00 00 fa 44 00 00 04 00 00 00 94 80 82 
00 07 83 00 00 fa 44 00 00 04 00 00 00 94 80 82 
00 07 7b 00 00 fa 44 00 00 04 00 00 00 94 80 82 
00 07 7d 00 00 fa 44 00 00 04 00 00 00 94 80 82 
00 07 71 00 00 fa 44 00 00 04 00 00 00 94 80 82 
00 07 c6 00 00 fa 44 00 00 04 00 00 00 94 80 82 
00 07 c1 00 00 fa 44 00 00 04 00 00 00 94 80 82 
00 07 88 00 00 fa 44 00 00 04 00 00 00 94 80 82 
00 07 8e 00 00 fa 44 00 00 04 00 00 00 94 80 82 
00 07 b8 00 00 fa 44 00 00 04 00 00 00 94 80 82 
00 07 ac 00 00 fa 44 00 00 04 00 00 00 94 80 82 
00 07 a3 00 00 fa 44 00 00 04 00 00 00 94 80 82 
00 07 82 00 00 fa 44 00 00 04 00 00 00 94 80 82 
00 07 8f 00 00 fa 44 00 00 04 00 00 00 94 80 82 
00 07 a7 00 00 fa 44 00 00 04 00 00 00 94 80 82 
00 07 aa 00 00 fa 44 00 00 04 00 00 00 94 80 82 
00 07 9f 00 00 fa 44 00 00 04 00 00 00 94 80 82 
00 07 c7 00 00 fa 44 00 00 04 00 00 00 94 80 82 
00 07 6a 00 00 fa 44 00 00 04 00 00 00 94 80 82 
00 07 88 00 00 fa 44 00 00 04 00 00 00 94 80 82 
00 07 8b 00 00 fa 44 00 00 04 00 00 00 94 80 82 
00 07 8c 00 00 fa 44 00 00 04 00 00 00 94 80 82 
00 07 6c 00 00 fa 44 00 00 04 00 00 00 94 80 82 
00 07 91 00 00 fa 44 00 00 04 00 00 00 94 80 82 
00 07 7b 00 00 fa 44 00 00 04 00 00 00 94 80 82 
00 07 3f 00 00 fa 44 00 00 04 00 00 00 94 80 82 
00 07 4d 00 00 fa 44 00 00 04 00 00 00 94 80 82 
00 07 81 00 00 fa 44 00 00 04 00 00 00 94 80 82 
00 07 91 00 00 fa 44 00 00 04 00 00 00 94 80 82 
00 07 7f 00 00 fa 44 00 00 04 00 00 00 94 80 82 
00 07 7b 00 00 fa 44 00 00 04 00 00 00 94 80 82 
00 07 af 00 00 fa 44 00 00 04 00 00 00 94 80 82 
00 07 99 00 00 fa 44 00 00 04 00 00 00 94 80 82 
00 07 5f 00 00 fa 44 00 00 04 00 00 00 94 80 82 
00 07 4b 00 00 fa 44 00 00 04 00 00 00 94 80 82 
00 07 77 00 00 fa 44 00 00 04 00 00 00 94 80 82 
00 07 5e 00 00 fa 44 00 00 04 00 00 00 94 80 82 
00 07 6d 00 00 fa 44 00 00 04 00 00 00 94 80 82 
00 07 5b 00 00 fa 44 00 00 04 00 00 00 94 80 82 
00 07 6e 00 00 fa 44 00 00 04 00 00 00 94 80 82 
00 07 95 00 00 fa 44 00 00 04 00 00 00 94 80 82 
00 07 7d 00 00 fa 44 00 00 04 00 00 00 94 80 82 
00 07 9e 00 00 fa 44 00 00 04 00 00 00 94 80 82 
00 07 70 00 00 fa 44 00 00 04 00 00 00 94 80 82 
00 07 71 00 00 fa 44 00 00 04 00 00 00 94 80 82 
00 07 71 00 00 fa 44 00 00 04 00 00 00 94 80 82 
00 07 a2 00 00 fa 44 00 00 04 00 00 00 94 80 82 
00 07 9b 00 00 fa 44 00 00 04 00 00 00 94 80 82 
00 07 6e 00 00 fa 44 00 00 04 00 00 00 94 80 82 
00 07 8c 00 00 fa 44 00 00 04 00 00 00 94 80 82 
00 07 70 00 00 fa 44 00 00 04 00 00 00 94 80 82 
00 07 65 00 00 fa 44 00 00 04 00 00 00 94 80 82 
00 07 39 00 00 fa 44 00 00 04 00 00 00 94 80 82 
00 07 6f 00 00 fa 44 00 00 04 00 00 00 94 80 82 
00 07 6d 00 00 fa 44 00 00 04 00 00 00 94 80 82 
00 07 9d 00 00 fa 44 00 00 04 00 00 00 94 80 82 
00 07 96 00 00 fa 44 00 00 04 00 00 00 94 80 82 
00 07 29 00 00 fa 44 00 00 04 00 00 00 94 80 82 
00 07 25 00 00 fa 44 00 00 04 00 00 00 94 80 82 
00 07 69 00 00 fa 44 00 00 04 00 00 00 94 80 82 
00 07 80 00 00 fa 44 00 00 04 00 00 00 94 80 82 
00 07 8e 00 00 fa 44 00 00 04 00 00 00 94 80 82 
00 07 52 00 00 fa 44 00 00 04 00 00 00 94 80 82 
00 07 46 00 00 fa 44 00 00 04 00 00 00 94 80 82 
00 07 52 00 00 fa 44 00 00 04 00 00 00 94 80 82 
00 07 54 00 00 fa 44 00 00 04 00 00 00 94 80 82 
00 07 74 00 00 fa 44 00 00 04 00 00 00 94 80 82 
00 07 35 00 00 fa 44 00 00 04 00 00 00 94 80 82 
00 07 25 00 00 fa 44 00 00 04 00 00 00 94 80 82 
00 07 1f 00 00 fa 44 00 00 04 00 00 00 94 80 82 
00 07 54 00 00 fa 44 00 00 04 00 00 00 94 80 82 
00 07 3c 00 00 fa 44 00 00 04 00 00 00 94 80 82 
00 07 3e 00 00 fa 44 00 00 04 00 00 00 94 80 82 
00 07 56 00 00 fa 44 00 00 04 00 00 00 94 80 82 
00 07 71 00 00 fa 44 00 00 04 00 00 00 94 80 82 
00 07 56 00 00 fa 44 00 00 04 00 00 00 94 80 82 
00 07 43 00 00 fa 44 00 00 04 00 00 00 94 80 82 
00 07 33 00 00 fa 44 00 00 04 00 00 00 94 80 82 
00 07 39 00 00 fa 44 00 00 04 00 00 00 94 80 82 
00 07 3b 00 00 fa 44 00 00 04 00 00 00 94 80 82 
00 07 50 00 00 fa 44 00 00 04 00 00 00 94 80 82 
00 07 2e 00 00 fa 44 00 00 04 00 00 00 94 80 82 
00 07 01 00 00 fa 44 00 00 04 00 00 00 94 80 82 
00 07 a1 00 00 fa 44 00 00 04 00 00 00 94 80 82 
00 07 67 00 00 fa 44 00 00 04 00 00 00 94 80 82 
00 07 7e 00 00 fa 44 00 00 04 00 00 00 94 80 82 
00 07 30 00 00 fa 44 00 00 04 00 00 00 94 80 82 
00 07 32 00 00 fa 44 00 00 04 00 00 00 94 80 82 
00 07 38 00 00 fa 44 00 00 04 00 00 00 94 80 82 
00 07 6c 00 00 fa 44 00 00 04 00 00 00 94 80 82 
00 07 9b 00 00 fa 44 00 00 04 00 00 00 94 80 82 
00 07 de 00 00 fa 44 00 00 04 00 00 00 94 80 82 
00 07 96 00 00 fa 44 00 00 04 00 00 00 94 80 82 
00 07 ac 00 00 fa 44 00 00 04 00 00 00 94 80 82 
00 07 81 00 00 fa 44 00 00 04 00 00 00 94 80 82 
00 07 ae 00 00 fa 44 00 00 04 00 00 00 94 80 82 
00 07 8d 00 00 fa 44 00 00 04 00 00 00 94 80 82 
00 07 7d 00 00 fa 44 00 00 04 00 00 00 94 80 82 
00 07 a3 00 00 fa 44 00 00 04 00 00 00 94 80 82 
00 07 59 00 00 fa 44 00 00 04 00 00 00 94 80 82 
00 07 b0 00 00 fa 44 00 00 04 00 00 00 94 80 82 
00 07 b6 00 00 fa 44 00 00 04 00 00 00 94 80 82 
00 07 83 00 00 00 00 00 00 94 80 00 00 fa 44 82 
00 07 84 00 00 fa 44 00 00 00 00 00 00 94 80 82 
00 07 a4 00 00 fa 44 00 00 00 00 00 00 94 80 82 
00 07 a7 00 00 fa 44 00 00 00 00 00 00 94 80 82 
00 07 ae 00 00 fa 44 00 00 00 00 00 00 94 80 82 
00 07 ac 00 00 fa 44 00 00 00 00 00 00 94 80 82 
00 07 b5 00 00 fa 44 00 00 00 00 00 00 94 80 82 
00 07 a6 00 00 fa 44 00 00 00 00 00 00 94 80 82 
00 07 b1 00 00 fa 44 00 00 00 00 00 00 94 80 82 
00 07 c8 00 00 fa 44 00 00 00 00 00 00 94 80 82 
00 07 c7 00 00 fa 44 00 00 00 00 00 00 94 80 82 
00 07 74 00 00 fa 44 00 00 00 00 00 00 94 80 82 
00 07 e3 00 00 fa 44 00 00 00 00 00 00 94 80 82 
00 07 a8 00 00 fa 44 00 00 00 00 00 00 94 80 82 
00 07 cf 00 00 fa 44 00 00 00 00 00 00 94 80 82 
00 07 7c 00 00 fa 44 00 00 00 00 00 00 94 80 82 
00 07 ce 00 00 fa 44 00 00 00 00 00 00 94 80 82 
00 07 85 00 00 fa 44 00 00 00 00 00 00 94 80 82 
00 07 73 00 00 fa 44 00 00 00 00 00 00 94 80 82 
00 07 6a 00 00 fa 44 00 00 00 00 00 00 94 80 82 
00 07 79 00 00 fa 44 00 00 00 00 00 00 94 80 82 
00 07 cc 00 00 fa 44 00 00 00 00 00 00 94 80 82 
00 07 a0 00 00 fa 44 00 00 00 00 00 00 94 80 82 
00 07 df 00 00 fa 44 00 00 00 00 00 00 94 80 82 
00 07 8c 00 00 fa 44 00 00 00 00 00 00 94 80 82 
00 07 c2 00 00 fa 44 00 00 00 00 00 00 94 80 82 
00 07 77 00 00 fa 44 00 00 00 00 00 00 94 80 82 
00 07 d7 00 00 fa 44 00 00 00 00 00 00 94 80 82 
00 07 8a 00 00 fa 44 00 00 00 00 00 00 94 80 82 
00 07 7b 00 00 fa 44 00 00 00 00 00 00 94 80 82 
00 07 c0 00 00 fa 44 00 00 00 00 00 00 94 80 82 
00 07 af 00 00 fa 44 00 00 00 00 00 00 94 80 82 
00 07 d8 00 00 fa 44 00 00 00 00 00 00 94 80 82 
00 07 de 00 00 fa 44 00 00 00 00 00 00 94 80 82 
00 07 ac 00 00 fa 44 00 00 00 00 00 00 94 80 82 
00 07 d1 00 00 fa 44 00 00 00 00 00 00 94 80 82 
00 07 9d 00 00 fa 44 00 00 00 00 00 00 94 80 82 
00 07 e5 00 00 fa 44 00 00 00 00 00 00 94 80 82 
00 07 ea 00 00 fa 44 00 00 00 00 00 00 94 80 82 
00 07 d7 00 00 fa 44 00 00 00 00 00 00 94 80 82 
00 07 a7 00 00 fa 44 00 00 00 00 00 00 94 80 82 
00 07 7e 00 00 fa 44 00 00 00 00 00 00 94 80 82 
00 07 8e 00 00 fa 44 00 00 00 00 00 00 94 80 82 
00 07 d9 00 00 fa 44 00 00 00 00 00 00 94 80 82 
00 07 b8 00 00 fa 44 00 00 00 00 00 00 94 80 82 
00 07 c8 00 00 fa 44 00 00 00 00 00 00 94 80 82 
00 07 d2 00 00 fa 44 00 00 00 00 00 00 94 80 82 
00 07 e7 00 00 fa 44 00 00 00 00 00 00 94 80 82 
00 07 c6 00 00 fa 44 00 00 00 00 00 00 94 80 82 
00 07 a7 00 00 fa 44 00 00 00 00 00 00 94 80 82 
00 07 a3 00 00 fa 44 00 00 00 00 00 00 94 80 82 
00 07 dd 00 00 fa 44 00 00 00 00 00 00 94 80 82 
00 07 a2 00 00 fa 44 00 00 00 00 00 00 94 80 82 
00 07 d8 00 00 fa 44 00 00 00 00 00 00 94 80 82 
00 07 c8 00 00 fa 44 00 00 00 00 00 00 94 80 82 
00 07 bf 00 00 fa 44 00 00 00 00 00 00 94 80 82 
00 07 b9 00 00 fa 44 00 00 00 00 00 00 94 80 82 
00 07 a6 00 00 fa 44 00 00 00 00 00 00 94 80 82 
00 07 bb 00 00 fa 44 00 00 00 00 00 00 94 80 82 
00 07 d4 00 00 fa 44 00 00 00 00 00 00 94 80 82 
00 07 ef 00 00 fa 44 00 00 00 00 00 00 94 80 82 
00 07 ad 00 00 fa 44 00 00 00 00 00 00 94 80 82 
00 07 c2 00 00 fa 44 00 00 00 00 00 00 94 80 82 
00 07 e3 00 00 fa 44 00 00 00 00 00 00 94 80 82 
00 07 f6 00 00 fa 44 00 00 00 00 00 00 94 80 82 
00 07 96 00 00 fa 44 00 00 00 00 00 00 94 80 82 
00 07 bc 00 00 fa 44 00 00 00 00 00 00 94 80 82 
00 07 c6 00 00 fa 44 00 00 00 00 00 00 94 80 82 
00 07 e2 00 00 fa 44 00 00 00 00 00 00 94 80 82 
00 08 05 00 00 fa 44 00 00 00 00 00 00 94 80 82 
00 07 ec 00 00 fa 44 00 00 00 00 00 00 94 80 82 
00 07 b8 00 00 fa 44 00 00 00 00 00 00 94 80 82 
00 07 99 00 00 fa 44 00 00 00 00 00 00 94 80 82 
00 07 a6 00 00 fa 44 00 00 00 00 00 00 94 80 82 
00 07 bc 00 00 fa 44 00 00 00 00 00 00 94 80 82 
00 07 7d 00 00 fa 44 00 00 00 00 00 00 94 80 82 
00 07 82 00 00 fa 44 00 00 00 00 00 00 94 80 82 
00 07 ca 00 00 fa 44 00 00 00 00 00 00 94 80 82 
00 07 d1 00 00 fa 44 00 00 00 00 00 00 94 80 82 
00 07 b2 00 00 fa 44 00 00 00 00 00 00 94 80 82 
00 07 aa 00 00 fa 44 00 00 00 00 00 00 94 80 82 
00 07 bc 00 00 fa 44 00 00 00 00 00 00 94 80 82 
00 07 a5 00 00 fa 44 00 00 00 00 00 00 94 80 82 
00 07 c5 00 00 fa 44 00 00 00 00 00 00 94 80 82 
00 07 f4 00 00 fa 44 00 00 00 00 00 00 94 80 82 
00 07 c9 00 00 fa 44 00 00 00 00 00 00 94 80 82 
00 07 e7 00 00 fa 44 00 00 00 00 00 00 94 80 82 
00 07 a0 00 00 fa 44 00 00 00 00 00 00 94 80 82 
00 07 b0 00 00 fa 44 00 00 00 00 00 00 94 80 82 
00 07 8c 00 00 fa 44 00 00 00 00 00 00 94 80 82 
00 07 d4 00 00 fa 44 00 00 00 00 00 00 94 80 82 
00 07 d1 00 00 fa 44 00 00 00 00 00 00 94 80 82 
00 07 d5 00 00 fa 44 00 00 00 00 00 00 94 80 82 
00 07 e4 00 00 fa 44 00 00 00 00 00 00 94 80 82 
00 07 c6 00 00 fa 44 00 00 00 00 00 00 94 80 82 
00 07 ec 00 00 fa 44 00 00 00 00 00 00 94 80 82 
00 07 a5 00 00 fa 44 00 00 00 00 00 00 94 80 82 
00 07 99 00 00 fa 44 00 00 00 00 00 00 94 80 82 
00 07 d6 00 00 fa 44 00 00 00 00 00 00 94 80 82 
00 07 c2 00 00 fa 44 00 00 00 00 00 00 94 80 82 
00 07 d9 00 00 fa 44 00 00 00 00 00 00 94 80 82 
00 07 ab 00 00 fa 44 00 00 00 00 00 00 94 80 82 
00 07 8f 00 00 fa 44 00 00 00 00 00 00 94 80 82 
00 07 b4 00 00 fa 44 00 00 00 00 00 00 94 80 82 
00 07 d0 00 00 fa 44 00 00 00 00 00 00 94 80 82 
00 07 d6 00 00 fa 44 00 00 00 00 00 00 94 80 82 
00 07 bd 00 00 fa 44 00 00 00 00 00 00 94 80 82 
00 07 b9 00 00 fa 44 00 00 00 00 00 00 94 80 82 
00 07 c9 00 00 fa 44 00 00 00 00 00 00 94 80 82 
00 07 86 00 00 fa 44 00 00 00 00 00 00 94 80 82 
00 07 aa 00 00 fa 44 00 00 00 00 00 00 94 80 82 
00 07 9a 00 00 fa 44 00 00 00 00 00 00 94 80 82 
00 07 95 00 00 fa 44 00 00 00 00 00 00 94 80 82 
00 07 f0 00 00 fa 44 00 00 00 00 00 00 94 80 82 
00 07 fb 00 00 fa 44 00 00 00 00 00 00 94 80 82 
00 07 da 00 00 fa 44 00 00 00 00 00 00 94 80 82 
00 07 b2 00 00 fa 44 00 00 00 00 00 00 94 80 82 
00 07 94 00 00 fa 44 00 00 00 00 00 00 94 80 82 
00 07 79 00 00 fa 44 00 00 00 00 00 00 94 80 82 
00 07 ab 00 00 fa 44 00 00 00 00 00 00 94 80 82 
00 07 8e 00 00 fa 44 00 00 00 00 00 00 94 80 82 
00 07 84 00 00 fa 44 00 00 00 00 00 00 94 80 82 
00 07 8d 00 00 fa 44 00 00 00 00 00 00 94 80 82 
00 07 84 00 00 fa 44 00 00 00 00 00 00 94 80 82 
00 07 8c 00 00 fa 44 00 00 00 00 00 00 94 80 82 
00 07 74 00 00 fa 44 00 00 00 00 00 00 94 80 82 
00 07 68 00 00 fa 44 00 00 00 00 00 00 94 80 82 
00 07 4c 00 00 fa 44 00 00 00 00 00 00 94 80 82 
00 07 6f 00 00 fa 44 00 00 00 00 00 00 94 80 82 
00 07 82 00 00 fa 44 00 00 00 00 00 00 94 80 82 
00 07 6b 00 00 fa 44 00 00 00 00 00 00 94 80 82 
00 07 78 00 00 fa 44 00 00 00 00 00 00 94 80 82 
00 07 ca 00 00 fa 44 00 00 00 00 00 00 94 80 82 
00 07 92 00 00 fa 44 00 00 00 00 00 00 94 80 82 
00 07 73 00 00 fa 44 00 00 00 00 00 00 94 80 82 
00 07 65 00 00 fa 44 00 00 00 00 00 00 94 80 82 
00 07 84 00 00 fa 44 00 00 00 00 00 00 94 80 82 
00 07 59 00 00 fa 44 00 00 00 00 00 00 94 80 82 
00 07 82 00 00 fa 44 00 00 00 00 00 00 94 80 82 
00 07 82 00 00 fa 44 00 00 00 00 00 00 94 80 82 
00 07 93 00 00 fa 44 00 00 00 00 00 00 94 80 82 
00 07 6e 00 00 fa 44 00 00 00 00 00 00 94 80 82 
00 07 5f 00 00 fa 44 00 00 00 00 00 00 94 80 82 
00 07 bd 00 00 fa 44 00 00 00 00 00 00 94 80 82 
00 07 ad 00 00 fa 44 00 00 00 00 00 00 94 80 82 
00 07 6d 00 00 fa 44 00 00 00 00 00 00 94 80 82 
00 07 99 00 00 fa 44 00 00 00 00 00 00 94 80 82 
00 07 9b 00 00 fa 44 00 00 00 00 00 00 94 80 82 
00 07 5d 00 00 fa 44 00 00 00 00 00 00 94 80 82 
00 07 9e 00 00 fa 44 00 00 00 00 00 00 94 80 82 
00 07 b2 00 00 fa 44 00 00 00 00 00 00 94 80 82 
00 07 dd 00 00 fa 44 00 00 00 00 00 00 94 80 82 
00 07 ab 00 00 fa 44 00 00 00 00 00 00 94 80 82 
00 07 2c 00 00 fa 44 00 00 00 00 00 00 94 80 82 
00 07 bc 00 00 fa 44 00 00 00 00 00 00 94 80 82 
00 07 c1 00 00 fa 44 00 00 00 00 00 00 94 80 82 
00 07 89 00 00 fa 44 00 00 00 00 00 00 94 80 82 
00 07 c7 00 00 fa 44 00 00 00 00 00 00 94 80 82 
00 07 8a 00 00 fa 44 00 00 00 00 00 00 94 80 82 
00 07 77 00 00 fa 44 00 00 00 00 00 00 94 80 82 
00 07 94 00 00 fa 44 00 00 00 00 00 00 94 80 82 
00 07 99 00 00 fa 44 00 00 00 00 00 00 94 80 82 
00 07 d3 00 00 fa 44 00 00 00 00 00 00 94 80 82 
00 07 8c 00 00 fa 44 00 00 00 00 00 00 94 80 82 
00 07 b1 00 00 fa 44 00 00 00 00 00 00 94 80 82 
00 07 9b 00 00 fa 44 00 00 00 00 00 00 94 80 82 
00 07 97 00 00 fa 44 00 00 00 00 00 00 94 80 82 
00 07 d6 00 00 fa 44 00 00 00 00 00 00 94 80 82 
00 07 77 00 00 fa 44 00 00 00 00 00 00 94 80 82 
00 07 89 00 00 fa 44 00 00 00 00 00 00 94 80 82 
00 07 a6 00 00 fa 44 00 00 00 00 00 00 94 80 82 
00 07 ab 00 00 fa 44 00 00 00 00 00 00 94 80 82 
00 07 81 00 00 fa 44 00 00 00 00 00 00 94 80 82 
00 07 85 00 00 fa 44 00 00 00 00 00 00 94 80 82 
00 07 9c 00 00 fa 44 00 00 00 00 00 00 94 80 82 
00 07 82 00 00 fa 44 00 00 00 00 00 00 94 80 82 
00 07 71 00 00 fa 44 00 00 00 00 00 00 94 80 82 
00 07 81 00 00 fa 44 00 00 00 00 00 00 94 80 82 
00 07 79 00 00 fa 44 00 00 00 00 00 00 94 80 82 
00 07 af 00 00 fa 44 00 00 00 00 00 00 94 80 82 
00 07 9e 00 00 fa 44 00 00 00 00 00 00 94 80 82 
00 07 74 00 00 fa 44 00 00 00 00 00 00 94 80 82 
00 07 9a 00 00 fa 44 00 00 00 00 00 00 94 80 82 
00 07 89 00 00 fa 44 00 00 00 00 00 00 94 80 82 
00 07 b2 00 00 fa 44 00 00 00 00 00 00 94 80 82 
00 07 4f 00 00 fa 44 00 00 00 00 00 00 94 80 82 
00 07 6c 00 00 fa 44 00 00 00 00 00 00 94 80 82 
00 07 b9 00 00 fa 44 00 00 00 00 00 00 94 80 82 
00 07 4f 00 00 fa 44 00 00 00 00 00 00 94 80 82 
00 07 8b 00 00 fa 44 00 00 00 00 00 00 94 80 82 
00 07 b6 00 00 fa 44 00 00 00 00 00 00 94 80 82 
00 07 57 00 00 fa 44 00 00 00 00 00 00 94 80 82 
00 07 93 00 00 fa 44 00 00 00 00 00 00 94 80 82 
00 07 66 00 00 fa 44 00 00 00 00 00 00 94 80 82 
00 07 b7 00 00 fa 44 00 00 00 00 00 00 94 80 82 
00 07 96 00 00 fa 44 00 00 00 00 00 00 94 80 82 
00 07 ab 00 00 fa 44 00 00 00 00 00 00 94 80 82 
00 07 ce 00 00 fa 44 00 00 00 00 00 00 94 80 82 
00 07 d1 00 00 fa 44 00 00 00 00 00 00 94 80 82 
00 07 8c 00 00 fa 44 00 00 00 00 00 00 94 80 82 
00 07 b3 00 00 fa 44 00 00 00 00 00 00 94 80 82 
00 07 80 00 00 fa 44 00 00 00 00 00 00 94 80 82 
00 07 b6 00 00 fa 44 00 00 00 00 00 00 94 80 82 
00 07 99 00 00 fa 44 00 00 00 00 00 00 94 80 82 
00 07 90 00 00 fa 44 00 00 00 00 00 00 94 80 82 
00 07 93 00 00 fa 44 00 00 00 00 00 00 94 80 82 
00 07 82 00 00 fa 44 00 00 00 00 00 00 94 80 82 
00 07 c7 00 00 fa 44 00 00 00 00 00 00 94 80 82 
00 07 96 00 00 fa 44 00 00 00 00 00 00 94 80 82 
00 07 73 00 00 fa 44 00 00 00 00 00 00 94 80 82 
00 07 8a 00 00 fa 44 00 00 00 00 00 00 94 80 82 
00 07 80 00 00 fa 44 00 00 00 00 00 00 94 80 82 
00 07 ad 00 00 fa 44 00 00 00 00 00 00 94 80 82 
00 07 a7 00 00 fa 44 00 00 00 00 00 00 94 80 82 
00 07 b6 00 00 fa 44 00 00 00 00 00 00 94 80 82 
00 07 c0 00 00 fa 44 00 00 00 00 00 00 94 80 82 
00 07 c1 00 00 fa 44 00 00 00 00 00 00 94 80 82 
00 07 d9 00 00 fa 44 00 00 00 00 00 00 94 80 82 
00 07 92 00 00 fa 44 00 00 00 00 00 00 94 80 82 
00 07 fc 00 00 fa 44 00 00 00 00 00 00 94 80 82 
00 07 b8 00 00 fa 44 00 00 00 00 00 00 94 80 82 
00 07 f4 00 00 fa 44 00 00 00 00 00 00 94 80 82 
00 07 be 00 00 fa 44 00 00 00 00 00 00 94 80 82 
00 07 bc 00 00 fa 44 00 00 00 00 00 00 94 80 82 
00 07 b8 00 00 fa 44 00 00 00 00 00 00 94 80 82 
00 07 af 00 00 fa 44 00 00 00 00 00 00 94 80 82 
00 07 cd 00 00 fa 44 00 00 00 00 00 00 94 80 82 
00 07 ac 00 00 fa 44 00 00 00 00 00 00 94 80 82 
00 07 db 00 00 fa 44 00 00 00 00 00 00 94 80 82 
00 07 cd 00 00 fa 44 00 00 00 00 00 00 94 80 82 
