00 22 28 00 67 fa 5e 00 00 00 00 01 00 01 00 00 
e9 94 5d 00 67 fa 5e 00 00 00 00 01 00 01 00 00 
ff a0 cf 00 67 fa 5e 00 00 00 00 01 00 01 00 00 
ff a0 cf 00 67 fa 5e 00 00 00 00 01 00 01 00 00 
ff cd 03 00 67 fa 5e 00 00 00 00 01 00 01 00 00 
ff e5 fc 00 67 fa 5e 00 00 00 00 01 00 01 00 00 
ff f3 ca 00 67 fa 5e 00 00 00 00 01 00 01 00 82 
ff fb 39 00 67 fa 5e 00 00 00 00 01 00 01 00 82 
ff ff b4 00 67 fa 5e 00 00 00 00 01 00 01 00 82 
00 01 9f 00 67 fa 5e 00 00 00 00 01 00 01 00 82 
00 03 79 00 67 fa 5e 00 00 00 00 01 00 01 00 82 
00 04 0d 00 67 fa 5e 00 00 00 00 01 00 01 00 82 
00 05 3e 00 67 fa 5e 00 00 00 00 01 00 01 00 82 
00 04 a1 00 67 fa 5e 00 00 00 00 01 00 01 00 82 
00 04 f2 00 67 fa 5e 00 00 00 00 01 00 01 00 82 
00 05 01 00 67 fa 5e 00 00 00 00 01 00 01 00 82 
00 04 dd 00 67 fa 5e 00 00 00 00 01 00 01 00 82 
00 05 21 00 67 fa 5e 00 00 00 00 01 00 01 00 82 
00 05 3e 00 67 fa 5e 00 00 00 00 01 00 01 00 82 
00 04 bf 00 67 fa 5e 00 00 00 00 01 00 01 00 82 
00 05 21 00 67 fa 5e 00 00 00 00 01 00 01 00 82 
00 05 92 00 67 fa 5e 00 00 00 00 01 00 01 00 82 
00 06 12 00 67 fa 5e 00 00 00 00 01 00 01 00 82 
00 06 2d 00 67 fa 5e 00 00 00 00 01 00 01 00 82 
00 06 27 00 67 fa 5e 00 00 00 00 01 00 01 00 82 
00 06 2d 00 67 fa 5e 00 00 00 00 01 00 01 00 82 
00 06 6a 00 67 fa 5e 00 00 00 00 01 00 01 00 82 
00 06 70 00 67 fa 5e 00 00 00 00 01 00 01 00 82 
00 06 83 00 67 fa 5e 00 00 00 00 01 00 01 00 82 
00 06 29 00 67 fa 5e 00 00 00 00 01 00 01 00 82 
00 06 2f 00 67 fa 5e 00 00 00 00 01 00 01 00 82 
00 06 60 00 67 fa 5e 00 00 00 00 01 00 01 00 82 
00 06 60 00 67 fa 5e 00 00 00 00 01 00 01 00 82 
00 06 8a 00 67 fa 5e 00 00 00 00 01 00 01 00 82 
00 06 16 00 67 fa 5e 00 00 00 00 01 00 01 00 82 
00 05 b0 00 67 fa 5e 00 00 00 00 01 00 01 00 82 
00 06 23 00 67 fa 5e 00 00 00 00 01 00 01 00 82 
00 06 62 00 67 fa 5e 00 00 00 00 01 00 01 00 82 
00 06 81 00 67 fa 5e 00 00 00 00 01 00 01 00 82 
00 06 92 00 67 fa 5e 00 00 00 00 01 00 01 00 82 
00 16 ab 00 67 fa 5e 00 00 00 00 01 00 01 00 82 
00 1c a8 00 67 fa 5e 00 00 00 00 01 00 01 00 82 
00 20 53 00 67 fa 5e 00 00 00 00 01 00 01 00 82 
00 22 77 00 67 fa 5e 00 00 00 00 01 00 01 00 82 
00 24 bd 00 67 fa 5e 00 00 00 00 01 00 01 00 82 
00 25 66 00 67 fa 5e 00 00 00 00 01 00 01 00 82 
00 24 9d 00 67 fa 5e 00 00 00 00 01 00 01 00 82 
00 25 90 00 67 fa 5e 00 00 00 00 01 00 01 00 82 
00 25 75 00 67 fa 5e 00 00 00 00 01 00 01 00 82 
00 25 ca 00 67 fa 5e 00 00 00 00 01 00 01 00 82 
00 25 ac 00 67 fa 5e 00 00 00 00 01 00 01 00 82 
00 25 1f 00 67 fa 5e 00 00 00 00 01 00 01 00 82 
00 25 ca 00 67 fa 5e 00 00 00 00 01 00 01 00 82 
00 25 e3 00 67 fa 5e 00 00 00 00 01 00 01 00 82 
00 26 72 00 67 fa 5e 00 00 00 00 01 00 01 00 82 
00 25 97 00 67 fa 5e 00 00 00 00 01 00 01 00 82 
00 26 07 00 67 fa 5e 00 00 00 00 01 00 01 00 82 
00 25 75 00 67 fa 5e 00 00 00 00 01 00 01 00 82 
00 25 45 00 67 fa 5e 00 00 00 00 01 00 01 00 82 
00 25 7b 00 67 fa 5e 00 00 00 00 01 00 01 00 82 
00 25 b2 00 67 fa 5e 00 00 00 00 01 00 01 00 82 
00 25 99 00 67 fa 5e 00 00 00 00 01 00 01 00 82 
00 25 ca 00 67 fa 5e 00 00 00 00 01 00 01 00 82 
00 26 07 00 67 fa 5e 00 00 00 00 01 00 01 00 82 
00 25 9b 00 67 fa 5e 00 00 00 00 01 00 01 00 82 
00 25 f0 00 67 fa 5e 00 00 00 00 01 00 01 00 82 
00 26 16 00 67 fa 5e 00 00 00 00 01 00 01 00 82 
00 26 b6 00 67 fa 5e 00 00 00 00 01 00 01 00 82 
00 26 7b 00 67 fa 5e 00 00 00 00 01 00 01 00 82 
00 25 f8 01 00 01 00 00 67 00 00 00 00 00 00 82 
00 25 d8 00 67 04 00 00 00 00 00 01 00 01 00 82 
00 25 8c 00 67 04 00 00 00 00 00 01 00 01 00 82 
00 26 09 00 67 04 00 00 00 00 00 01 00 01 00 82 
00 25 57 00 67 04 00 00 00 00 00 01 00 01 00 82 
00 25 97 00 67 04 00 00 00 00 00 01 00 01 00 82 
00 25 bf 00 67 04 00 00 00 00 00 01 00 01 00 82 
00 25 d2 00 67 04 00 00 00 00 00 01 00 01 00 82 
00 25 e7 00 67 04 00 00 00 00 00 01 00 01 00 82 
00 25 a3 00 67 04 00 00 00 00 00 01 00 01 00 82 
00 25 7f 00 67 04 00 00 00 00 00 01 00 01 00 82 
00 25 9f 00 67 04 00 00 00 00 00 01 00 01 00 82 
00 25 ff 00 67 04 00 00 00 00 00 01 00 01 00 82 
00 25 9f 00 67 04 00 00 00 00 00 01 00 01 00 82 
00 26 01 00 67 04 00 00 00 00 00 01 00 01 00 82 
00 26 7f 00 67 04 00 00 00 00 00 01 00 01 00 82 
00 26 32 00 67 04 00 00 00 00 00 01 00 01 00 82 
00 26 18 00 67 04 00 00 00 00 00 01 00 01 00 82 
00 25 f2 00 67 04 00 00 00 00 00 01 00 01 00 82 
00 25 a5 00 67 04 00 00 00 00 00 01 00 01 00 82 
00 26 3c 00 67 04 00 00 00 00 00 01 00 01 00 82 
00 25 7d 00 67 04 00 00 00 00 00 01 00 01 00 82 
00 25 94 00 67 04 00 00 00 00 00 01 00 01 00 82 
00 25 6e 00 67 04 00 00 00 00 00 01 00 01 00 82 
00 26 79 00 67 04 00 00 00 00 00 01 00 01 00 82 
00 25 f8 00 67 04 00 00 00 00 00 01 00 01 00 82 
00 26 3c 00 67 04 00 00 00 00 00 01 00 01 00 82 
00 25 77 00 67 04 00 00 00 00 00 01 00 01 00 82 
00 25 ec 00 67 04 00 00 00 00 00 01 00 01 00 82 
00 26 52 00 67 04 00 00 00 00 00 01 00 01 00 82 
00 26 7d 00 67 04 00 00 00 00 00 01 00 01 00 82 
00 25 ff 00 67 04 00 00 00 00 00 01 00 01 00 82 
00 26 0b 00 67 04 00 00 00 00 00 01 00 01 00 82 
00 26 21 00 67 04 00 00 00 00 00 01 00 01 00 82 
00 25 7f 00 67 04 00 00 00 00 00 01 00 01 00 82 
00 26 18 00 67 04 00 00 00 00 00 01 00 01 00 82 
00 26 18 00 67 04 00 00 00 00 00 01 00 01 00 82 
00 26 ca 00 67 04 00 00 00 00 00 01 00 01 00 82 
00 25 90 00 67 04 00 00 00 00 00 01 00 01 00 82 
00 25 d6 00 67 04 00 00 00 00 00 01 00 01 00 82 
00 25 bf 00 67 04 00 00 00 00 00 01 00 01 00 82 
00 25 cc 00 67 04 00 00 00 00 00 01 00 01 00 82 
00 25 8e 00 67 04 00 00 00 00 00 01 00 01 00 82 
00 25 a8 00 67 04 00 00 00 00 00 01 00 01 00 82 
00 25 e3 00 67 04 00 00 00 00 00 01 00 01 00 82 
00 26 56 00 67 04 00 00 00 00 00 01 00 01 00 82 
00 25 c3 00 67 04 00 00 00 00 00 01 00 01 00 82 
00 25 e3 00 67 04 00 00 00 00 00 01 00 01 00 82 
00 25 aa 00 67 04 00 00 00 00 00 01 00 01 00 82 
00 25 38 00 67 04 00 00 00 00 00 01 00 01 00 82 
00 25 6a 00 67 04 00 00 00 00 00 01 00 01 00 82 
00 25 9d 00 67 04 00 00 00 00 00 01 00 01 00 82 
00 25 92 00 67 04 00 00 00 00 00 01 00 01 00 82 
00 26 29 00 67 04 00 00 00 00 00 01 00 01 00 82 
00 25 77 00 67 04 00 00 00 00 00 01 00 01 00 82 
00 25 6a 00 67 04 00 00 00 00 00 01 00 01 00 82 
00 26 30 00 67 04 00 00 00 00 00 01 00 01 00 82 
00 25 3a 00 67 04 00 00 00 00 00 01 00 01 00 82 
00 25 e5 00 67 04 00 00 00 00 00 01 00 01 00 82 
00 26 43 00 67 04 00 00 00 00 00 01 00 01 00 82 
00 26 7b 00 67 04 00 00 00 00 00 01 00 01 00 82 
00 25 a1 00 67 04 00 00 00 00 00 01 00 01 00 82 
00 26 2b 00 67 04 00 00 00 00 00 01 00 01 00 82 
00 25 ae 00 67 04 00 00 00 00 00 01 00 01 00 82 
00 26 79 00 67 04 00 00 00 00 00 01 00 01 00 82 
00 25 e5 00 67 04 00 00 00 00 00 01 00 01 00 82 
00 25 e5 00 67 04 00 00 00 00 00 01 00 01 00 82 
00 25 c5 00 67 04 00 00 00 00 00 01 00 01 00 82 
00 25 d0 00 67 04 00 00 00 00 00 01 00 01 00 82 
00 25 16 00 67 04 00 00 00 00 00 01 00 01 00 82 
00 25 9d 00 67 04 00 00 00 00 00 01 00 01 00 82 
00 25 d6 00 67 04 00 00 00 00 00 01 00 01 00 82 
00 25 79 00 67 04 00 00 00 00 00 01 00 01 00 82 
00 25 e9 00 67 04 00 00 00 00 00 01 00 01 00 82 
00 25 ee 00 67 04 00 00 00 00 00 01 00 01 00 82 
00 25 f2 00 67 04 00 00 00 00 00 01 00 01 00 82 
00 25 ac 00 67 04 00 00 00 00 00 01 00 01 00 82 
00 26 81 00 67 04 00 00 00 00 00 01 00 01 00 82 
00 25 66 00 67 04 00 00 00 00 00 01 00 01 00 82 
00 26 18 00 67 04 00 00 00 00 00 01 00 01 00 82 
00 25 94 00 67 04 00 00 00 00 00 01 00 01 00 82 
00 26 30 00 67 04 00 00 00 00 00 01 00 01 00 82 
00 25 70 00 67 04 00 00 00 00 00 01 00 01 00 82 
00 25 d0 00 67 04 00 00 00 00 00 01 00 01 00 82 
00 26 07 00 67 04 00 00 00 00 00 01 00 01 00 82 
00 25 c7 00 67 04 00 00 00 00 00 01 00 01 00 82 
00 25 f2 00 67 04 00 00 00 00 00 01 00 01 00 82 
00 25 c3 00 67 04 00 00 00 00 00 01 00 01 00 82 
00 25 b6 00 67 04 00 00 00 00 00 01 00 01 00 82 
00 26 47 00 67 04 00 00 00 00 00 01 00 01 00 82 
00 26 12 00 67 04 00 00 00 00 00 01 00 01 00 82 
00 25 b4 00 67 04 00 00 00 00 00 01 00 01 00 82 
00 26 34 00 67 04 00 00 00 00 00 01 00 01 00 82 
00 25 8c 00 67 04 00 00 00 00 00 01 00 01 00 82 
00 25 6a 00 67 04 00 00 00 00 00 01 00 01 00 82 
00 25 6c 00 67 04 00 00 00 00 00 01 00 01 00 82 
00 25 a8 00 67 04 00 00 00 00 00 01 00 01 00 82 
00 25 18 00 67 04 00 00 00 00 00 01 00 01 00 82 
00 25 4d 00 67 04 00 00 00 00 00 01 00 01 00 82 
00 24 ee 00 67 04 00 00 00 00 00 01 00 01 00 82 
00 25 aa 00 67 04 00 00 00 00 00 01 00 01 00 82 
00 25 e3 00 67 04 00 00 00 00 00 01 00 01 00 82 
00 26 81 00 67 04 00 00 00 00 00 01 00 01 00 82 
00 26 10 00 67 04 00 00 00 00 00 01 00 01 00 82 
00 26 5c 00 67 04 00 00 00 00 00 01 00 01 00 82 
00 25 9b 00 67 04 00 00 00 00 00 01 00 01 00 82 
00 25 d4 00 67 04 00 00 00 00 00 01 00 01 00 82 
00 27 18 00 67 04 00 00 00 00 00 01 00 01 00 82 
00 26 7b 00 67 04 00 00 00 00 00 01 00 01 00 82 
00 25 e1 00 67 04 00 00 00 00 00 01 00 01 00 82 
00 25 df 00 67 04 00 00 00 00 00 01 00 01 00 82 
00 25 a3 00 67 04 00 00 00 00 00 01 00 01 00 82 
00 25 c5 00 67 04 00 00 00 00 00 01 00 01 00 82 
00 26 8e 00 67 04 00 00 00 00 00 01 00 01 00 82 
00 26 97 00 67 04 00 00 00 00 00 01 00 01 00 82 
00 26 e1 00 67 04 00 00 00 00 00 01 00 01 00 82 
00 26 6a 00 67 04 00 00 00 00 00 01 00 01 00 82 
00 25 ae 00 67 04 00 00 00 00 00 01 00 01 00 82 
00 26 79 00 67 04 00 00 00 00 00 01 00 01 00 82 
00 26 05 00 67 04 00 00 00 00 00 01 00 01 00 82 
00 26 03 00 67 04 00 00 00 00 00 01 00 01 00 82 
00 25 e1 00 67 04 00 00 00 00 00 01 00 01 00 82 
00 25 b4 00 67 04 00 00 00 00 00 01 00 01 00 82 
00 26 ac 00 67 04 00 00 00 00 00 01 00 01 00 82 
00 25 df 00 67 04 00 00 00 00 00 01 00 01 00 82 
00 26 27 00 67 04 00 00 00 00 00 01 00 01 00 82 
00 25 c3 00 67 04 00 00 00 00 00 01 00 01 00 82 
00 25 5b 00 67 04 00 00 00 00 00 01 00 01 00 82 
00 26 8e 00 67 04 00 00 00 00 00 01 00 01 00 82 
00 25 6e 00 67 04 00 00 00 00 00 01 00 01 00 82 
00 25 d2 00 67 04 00 00 00 00 00 01 00 01 00 82 
00 25 27 00 67 04 00 00 00 00 00 01 00 01 00 82 
00 25 61 00 67 04 00 00 00 00 00 01 00 01 00 82 
00 26 b0 00 67 04 00 00 00 00 00 01 00 01 00 82 
00 26 e7 00 67 04 00 00 00 00 00 01 00 01 00 82 
00 26 47 00 67 04 00 00 00 00 00 01 00 01 00 82 
00 26 8a 00 67 04 00 00 00 00 00 01 00 01 00 82 
00 26 21 00 67 04 00 00 00 00 00 01 00 01 00 82 
00 25 f0 00 67 04 00 00 00 00 00 01 00 01 00 82 
00 25 ee 00 67 04 00 00 00 00 00 01 00 01 00 82 
00 25 92 00 67 04 00 00 00 00 00 01 00 01 00 82 
00 26 25 00 67 04 00 00 00 00 00 01 00 01 00 82 
00 25 e5 00 67 04 00 00 00 00 00 01 00 01 00 82 
00 25 dd 00 67 04 00 00 00 00 00 01 00 01 00 82 
00 25 e3 00 67 04 00 00 00 00 00 01 00 01 00 82 
00 25 f0 00 67 04 00 00 00 00 00 01 00 01 00 82 
00 26 07 00 67 04 00 00 00 00 00 01 00 01 00 82 
00 25 a8 00 67 04 00 00 00 00 00 01 00 01 00 82 
00 25 86 00 67 04 00 00 00 00 00 01 00 01 00 82 
00 25 4b 00 67 04 00 00 00 00 00 01 00 01 00 82 
00 25 88 00 67 04 00 00 00 00 00 01 00 01 00 82 
00 26 32 00 67 04 00 00 00 00 00 01 00 01 00 82 
00 25 c1 00 67 04 00 00 00 00 00 01 00 01 00 82 
00 25 df 00 67 04 00 00 00 00 00 01 00 01 00 82 
00 25 6a 00 67 04 00 00 00 00 00 01 00 01 00 82 
00 26 18 00 67 04 00 00 00 00 00 01 00 01 00 82 
00 26 01 00 67 04 00 00 00 00 00 01 00 01 00 82 
00 26 0e 00 67 04 00 00 00 00 00 01 00 01 00 82 
00 26 09 00 67 04 00 00 00 00 00 01 00 01 00 82 
00 25 a8 00 67 04 00 00 00 00 00 01 00 01 00 82 
00 26 c5 00 67 04 00 00 00 00 00 01 00 01 00 82 
00 25 90 00 67 04 00 00 00 00 00 01 00 01 00 82 
00 25 64 00 67 04 00 00 00 00 00 01 00 01 00 82 
00 25 3c 00 67 04 00 00 00 00 00 01 00 01 00 82 
00 25 6a 00 67 04 00 00 00 00 00 01 00 01 00 82 
00 25 5f 00 67 04 00 00 00 00 00 01 00 01 00 82 
00 25 68 00 67 04 00 00 00 00 00 01 00 01 00 82 
00 25 83 00 67 04 00 00 00 00 00 01 00 01 00 82 
00 25 97 00 67 04 00 00 00 00 00 01 00 01 00 82 
00 25 90 00 67 04 00 00 00 00 00 01 00 01 00 82 
00 25 dd 00 67 04 00 00 00 00 00 01 00 01 00 82 
00 25 bf 00 67 04 00 00 00 00 00 01 00 01 00 82 
00 26 4d 00 67 04 00 00 00 00 00 01 00 01 00 82 
00 25 3e 00 67 04 00 00 00 00 00 01 00 01 00 82 
00 26 4f 00 67 04 00 00 00 00 00 01 00 01 00 82 
00 25 b9 00 67 04 00 00 00 00 00 01 00 01 00 82 
00 25 fa 00 67 04 00 00 00 00 00 01 00 01 00 82 
00 26 aa 00 67 04 00 00 00 00 00 01 00 01 00 82 
00 26 03 00 67 04 00 00 00 00 00 01 00 01 00 82 
00 25 81 00 67 04 00 00 00 00 00 01 00 01 00 82 
00 25 c3 00 67 04 00 00 00 00 00 01 00 01 00 82 
00 25 8a 00 67 04 00 00 00 00 00 01 00 01 00 82 
00 25 9f 00 67 04 00 00 00 00 00 01 00 01 00 82 
00 25 d0 00 67 04 00 00 00 00 00 01 00 01 00 82 
00 25 ec 00 67 04 00 00 00 00 00 01 00 01 00 82 
00 25 b0 00 67 04 00 00 00 00 00 01 00 01 00 82 
00 25 a3 00 67 04 00 00 00 00 00 01 00 01 00 82 
00 26 60 00 67 04 00 00 00 00 00 01 00 01 00 82 
00 25 79 00 67 04 00 00 00 00 00 01 00 01 00 82 
00 25 47 00 67 04 00 00 00 00 00 01 00 01 00 82 
00 25 a8 00 67 04 00 00 00 00 00 01 00 01 00 82 
00 26 09 00 67 04 00 00 00 00 00 01 00 01 00 82 
00 26 49 00 67 04 00 00 00 00 00 01 00 01 00 82 
00 25 90 00 67 04 00 00 00 00 00 01 00 01 00 82 
00 26 49 00 67 04 00 00 00 00 00 01 00 01 00 82 
00 24 e9 00 67 04 00 00 00 00 00 01 00 01 00 82 
00 25 f0 00 67 04 00 00 00 00 00 01 00 01 00 82 
00 25 ca 00 67 04 00 00 00 00 00 01 00 01 00 82 
00 26 32 00 67 04 00 00 00 00 00 01 00 01 00 82 
00 26 1f 00 67 04 00 00 00 00 00 01 00 01 00 82 
00 25 e3 00 67 04 00 00 00 00 00 01 00 01 00 82 
00 25 b0 00 67 04 00 00 00 00 00 01 00 01 00 82 
00 25 88 00 67 04 00 00 00 00 00 01 00 01 00 82 
00 26 3e 00 67 04 00 00 00 00 00 01 00 01 00 82 
00 25 1f 00 67 04 00 00 00 00 00 01 00 01 00 82 
00 26 49 00 67 04 00 00 00 00 00 01 00 01 00 82 
00 25 3a 00 67 04 00 00 00 00 00 01 00 01 00 82 
00 26 45 00 67 04 00 00 00 00 00 01 00 01 00 82 
00 26 21 00 67 04 00 00 00 00 00 01 00 01 00 82 
00 26 16 00 67 04 00 00 00 00 00 01 00 01 00 82 
00 26 14 00 67 04 00 00 00 00 00 01 00 01 00 82 
00 25 c3 00 67 04 00 00 00 00 00 01 00 01 00 82 
00 26 10 00 67 04 00 00 00 00 00 01 00 01 00 82 
00 25 b2 00 67 04 00 00 00 00 00 01 00 01 00 82 
00 25 bf 00 67 04 00 00 00 00 00 01 00 01 00 82 
00 25 7f 00 67 04 00 00 00 00 00 01 00 01 00 82 
00 25 7f 00 67 04 00 00 00 00 00 01 00 01 00 82 
00 26 1f 00 67 04 00 00 00 00 00 01 00 01 00 82 
00 25 ce 00 67 04 00 00 00 00 00 01 00 01 00 82 
00 25 2b 00 67 04 00 00 00 00 00 01 00 01 00 82 
00 25 f6 00 67 04 00 00 00 00 00 01 00 01 00 82 
00 25 a1 00 67 04 00 00 00 00 00 01 00 01 00 82 
00 25 97 00 67 04 00 00 00 00 00 01 00 01 00 82 
00 25 7d 00 67 04 00 00 00 00 00 01 00 01 00 82 
00 25 7f 00 67 04 00 00 00 00 00 01 00 01 00 82 
00 25 bb 00 67 04 00 00 00 00 00 01 00 01 00 82 
00 25 e7 00 67 04 00 00 00 00 00 01 00 01 00 82 
00 25 34 00 67 04 00 00 00 00 00 01 00 01 00 82 
00 25 6e 00 67 04 00 00 00 00 00 01 00 01 00 82 
00 25 72 00 67 04 00 00 00 00 00 01 00 01 00 82 
00 26 7d 00 67 04 00 00 00 00 00 01 00 01 00 82 
00 25 ec 00 67 04 00 00 00 00 00 01 00 01 00 82 
00 26 09 00 67 04 00 00 00 00 00 01 00 01 00 82 
00 25 e7 00 67 04 00 00 00 00 00 01 00 01 00 82 
00 25 ca 00 67 04 00 00 00 00 00 01 00 01 00 82 
00 26 38 00 67 04 00 00 00 00 00 01 00 01 00 82 
00 26 25 00 67 04 00 00 00 00 00 01 00 01 00 82 
00 26 1f 00 67 04 00 00 00 00 00 01 00 01 00 82 
00 26 07 00 67 04 00 00 00 00 00 01 00 01 00 82 
00 26 38 00 67 04 00 00 00 00 00 01 00 01 00 82 
00 26 1a 00 67 04 00 00 00 00 00 01 00 01 00 82 
00 26 6c 00 67 04 00 00 00 00 00 01 00 01 00 82 
00 25 d2 00 67 04 00 00 00 00 00 01 00 01 00 82 
00 25 b0 00 67 04 00 00 00 00 00 01 00 01 00 82 
00 26 21 00 67 04 00 00 00 00 00 01 00 01 00 82 
00 25 16 00 67 04 00 00 00 00 00 01 00 01 00 82 
00 26 7f 00 67 04 00 00 00 00 00 01 00 01 00 82 
00 26 1f 00 67 04 00 00 00 00 00 01 00 01 00 82 
00 25 8a 00 67 04 00 00 00 00 00 01 00 01 00 82 
00 25 fa 00 67 04 00 00 00 00 00 01 00 01 00 82 
00 25 61 00 67 04 00 00 00 00 00 01 00 01 00 82 
00 26 0e 00 67 04 00 00 00 00 00 01 00 01 00 82 
00 25 6a 00 67 04 00 00 00 00 00 01 00 01 00 82 
00 26 14 00 67 04 00 00 00 00 00 01 00 01 00 82 
00 26 7f 00 67 04 00 00 00 00 00 01 00 01 00 82 
00 25 f0 00 67 04 00 00 00 00 00 01 00 01 00 82 
00 25 f4 00 67 04 00 00 00 00 00 01 00 01 00 82 
00 26 1f 00 67 04 00 00 00 00 00 01 00 01 00 82 
00 25 fa 00 67 04 00 00 00 00 00 01 00 01 00 82 
00 25 3c 00 67 04 00 00 00 00 00 01 00 01 00 82 
00 25 43 00 67 04 00 00 00 00 00 01 00 01 00 82 
00 25 25 00 67 04 00 00 00 00 00 01 00 01 00 82 
00 25 7f 00 67 04 00 00 00 00 00 01 00 01 00 82 
00 25 a1 00 67 04 00 00 00 00 00 01 00 01 00 82 
00 26 ac 00 67 04 00 00 00 00 00 01 00 01 00 82 
00 25 fd 00 67 04 00 00 00 00 00 01 00 01 00 82 
00 25 e7 00 67 04 00 00 00 00 00 01 00 01 00 82 
00 25 b6 00 67 04 00 00 00 00 00 01 00 01 00 82 
00 25 ec 00 67 04 00 00 00 00 00 01 00 01 00 82 
00 25 86 00 67 04 00 00 00 00 00 01 00 01 00 82 
00 25 81 00 67 04 00 00 00 00 00 01 00 01 00 82 
00 24 df 00 67 04 00 00 00 00 00 01 00 01 00 82 
00 25 8e 00 67 04 00 00 00 00 00 01 00 01 00 82 
00 25 2d 00 67 04 00 00 00 00 00 01 00 01 00 82 
00 25 30 00 67 04 00 00 00 00 00 01 00 01 00 82 
00 25 3c 00 67 04 00 00 00 00 00 01 00 01 00 82 
00 26 0e 00 67 04 00 00 00 00 00 01 00 01 00 82 
00 26 1c 00 67 04 00 00 00 00 00 01 00 01 00 82 
00 26 16 00 67 04 00 00 00 00 00 01 00 01 00 82 
00 25 92 00 67 04 00 00 00 00 00 01 00 01 00 82 
00 25 94 00 67 04 00 00 00 00 00 01 00 01 00 82 
00 25 1c 00 67 04 00 00 00 00 00 01 00 01 00 82 
00 25 2d 00 67 04 00 00 00 00 00 01 00 01 00 82 
00 25 7b 00 67 04 00 00 00 00 00 01 00 01 00 82 
00 25 81 00 67 04 00 00 00 00 00 01 00 01 00 82 
00 25 0b 00 67 04 00 00 00 00 00 01 00 01 00 82 
00 25 25 00 67 04 00 00 00 00 00 01 00 01 00 82 
00 25 36 00 67 04 00 00 00 00 00 01 00 01 00 82 
00 25 6a 00 67 04 00 00 00 00 00 01 00 01 00 82 
00 25 12 00 67 04 00 00 00 00 00 01 00 01 00 82 
00 25 c3 00 67 04 00 00 00 00 00 01 00 01 00 82 
00 25 23 00 67 04 00 00 00 00 00 01 00 01 00 82 
00 25 59 00 67 04 00 00 00 00 00 01 00 01 00 82 
00 26 43 00 67 04 00 00 00 00 00 01 00 01 00 82 
00 25 bd 00 67 04 00 00 00 00 00 01 00 01 00 82 
00 25 6c 00 67 04 00 00 00 00 00 01 00 01 00 82 
00 25 79 00 67 04 00 00 00 00 00 01 00 01 00 82 
00 25 7b 00 67 04 00 00 00 00 00 01 00 01 00 82 
00 26 03 00 67 04 00 00 00 00 00 01 00 01 00 82 
00 25 99 00 67 04 00 00 00 00 00 01 00 01 00 82 
00 25 a8 00 67 04 00 00 00 00 00 01 00 01 00 82 
00 26 0e 00 67 04 00 00 00 00 00 01 00 01 00 82 
00 25 4b 00 67 04 00 00 00 00 00 01 00 01 00 82 
00 25 8a 00 67 04 00 00 00 00 00 01 00 01 00 82 
00 25 cc 00 67 04 00 00 00 00 00 01 00 01 00 82 
00 25 6e 00 67 04 00 00 00 00 00 01 00 01 00 82 
00 25 6c 00 67 04 00 00 00 00 00 01 00 01 00 82 
00 25 47 00 67 04 00 00 00 00 00 01 00 01 00 82 
00 25 75 00 67 04 00 00 00 00 00 01 00 01 00 82 
00 26 0b 00 67 04 00 00 00 00 00 01 00 01 00 82 
00 25 7d 00 67 04 00 00 00 00 00 01 00 01 00 82 
00 25 7d 00 67 04 00 00 00 00 00 01 00 01 00 82 
00 25 27 00 67 04 00 00 00 00 00 01 00 01 00 82 
00 25 aa 00 67 04 00 00 00 00 00 01 00 01 00 82 
00 25 70 00 67 04 00 00 00 00 00 01 00 01 00 82 
00 25 5f 00 67 04 00 00 00 00 00 01 00 01 00 82 
00 25 72 00 67 04 00 00 00 00 00 01 00 01 00 82 
00 25 f6 00 67 04 00 00 00 00 00 01 00 01 00 82 
00 25 d4 00 67 04 00 00 00 00 00 01 00 01 00 82 
00 26 16 00 67 04 00 00 00 00 00 01 00 01 00 82 
00 25 d0 00 67 04 00 00 00 00 00 01 00 01 00 82 
00 25 6c 00 67 04 00 00 00 00 00 01 00 01 00 82 
00 26 97 00 67 04 00 00 00 00 00 01 00 01 00 82 
00 25 43 00 67 04 00 00 00 00 00 01 00 01 00 82 
00 25 f6 00 67 04 00 00 00 00 00 01 00 01 00 82 
00 25 5b 00 67 04 00 00 00 00 00 01 00 01 00 82 
00 25 b2 00 67 04 00 00 00 00 00 01 00 01 00 82 
00 26 07 00 67 04 00 00 00 00 00 01 00 01 00 82 
00 25 fa 00 67 04 00 00 00 00 00 01 00 01 00 82 
00 26 6a 00 67 04 00 00 00 00 00 01 00 01 00 82 
00 25 9f 00 67 04 00 00 00 00 00 01 00 01 00 82 
00 26 1c 00 67 04 00 00 00 00 00 01 00 01 00 82 
00 25 a5 00 67 04 00 00 00 00 00 01 00 01 00 82 
00 25 c3 00 67 04 00 00 00 00 00 01 00 01 00 82 
00 26 41 00 67 04 00 00 00 00 00 01 00 01 00 82 
00 25 97 00 67 04 00 00 00 00 00 01 00 01 00 82 
00 25 c1 00 67 04 00 00 00 00 00 01 00 01 00 82 
00 25 ae 00 67 04 00 00 00 00 00 01 00 01 00 82 
00 25 86 00 67 04 00 00 00 00 00 01 00 01 00 82 
00 25 b0 00 67 04 00 00 00 00 00 01 00 01 00 82 
00 26 54 00 67 04 00 00 00 00 00 01 00 01 00 82 
00 26 70 00 67 04 00 00 00 00 00 01 00 01 00 82 
00 25 e1 00 67 04 00 00 00 00 00 01 00 01 00 82 
00 26 e7 00 67 04 00 00 00 00 00 01 00 01 00 82 
00 26 ae 00 67 04 00 00 00 00 00 01 00 01 00 82 
00 26 7f 00 67 04 00 00 00 00 00 01 00 01 00 82 
00 26 3c 00 67 04 00 00 00 00 00 01 00 01 00 82 
00 26 34 00 67 04 00 00 00 00 00 01 00 01 00 82 
00 25 a3 00 67 04 00 00 00 00 00 01 00 01 00 82 
00 26 c5 00 67 04 00 00 00 00 00 01 00 01 00 82 
00 26 7f 00 67 04 00 00 00 00 00 01 00 01 00 82 
00 25 e5 00 67 04 00 00 00 00 00 01 00 01 00 82 
00 25 c1 00 67 04 00 00 00 00 00 01 00 01 00 82 
00 26 32 00 67 04 00 00 00 00 00 01 00 01 00 82 
00 26 9d 00 67 04 00 00 00 00 00 01 00 01 00 82 
00 26 1c 00 67 04 00 00 00 00 00 01 00 01 00 82 
00 26 86 00 67 04 00 00 00 00 00 01 00 01 00 82 
00 26 34 00 67 04 00 00 00 00 00 01 00 01 00 82 
00 25 ce 00 67 04 00 00 00 00 00 01 00 01 00 82 
00 26 0b 00 67 04 00 00 00 00 00 01 00 01 00 82 
00 25 e1 00 67 04 00 00 00 00 00 01 00 01 00 82 
00 25 ee 00 67 04 00 00 00 00 00 01 00 01 00 82 
00 26 86 00 67 04 00 00 00 00 00 01 00 01 00 82 
00 26 68 00 67 04 00 00 00 00 00 01 00 01 00 82 
00 26 32 00 67 04 00 00 00 00 00 01 00 01 00 82 
00 25 c3 00 67 04 00 00 00 00 00 01 00 01 00 82 
00 27 09 00 67 04 00 00 00 00 00 01 00 01 00 82 
00 26 2d 00 67 04 00 00 00 00 00 01 00 01 00 82 
00 26 60 00 67 04 00 00 00 00 00 01 00 01 00 82 
00 25 c3 00 67 04 00 00 00 00 00 01 00 01 00 82 
00 25 e7 00 67 04 00 00 00 00 00 01 00 01 00 82 
00 26 81 00 67 04 00 00 00 00 00 01 00 01 00 82 
00 25 d8 00 67 04 00 00 00 00 00 01 00 01 00 82 
00 25 94 00 67 04 00 00 00 00 00 01 00 01 00 82 
00 26 1a 00 67 04 00 00 00 00 00 01 00 01 00 82 
00 26 c1 00 67 04 00 00 00 00 00 01 00 01 00 82 
00 26 30 00 67 04 00 00 00 00 00 01 00 01 00 82 
00 25 bd 00 67 04 00 00 00 00 00 01 00 01 00 82 
00 26 5c 00 67 04 00 00 00 00 00 01 00 01 00 82 
00 26 70 00 67 04 00 00 00 00 00 01 00 01 00 82 
00 26 8e 00 67 04 00 00 00 00 00 01 00 01 00 82 
00 25 b9 00 67 04 00 00 00 00 00 01 00 01 00 82 
00 25 d8 00 67 04 00 00 00 00 00 01 00 01 00 82 
00 26 b9 00 67 04 00 00 00 00 00 01 00 01 00 82 
00 25 d2 00 67 04 00 00 00 00 00 01 00 01 00 82 
00 25 bd 00 67 04 00 00 00 00 00 01 00 01 00 82 
00 26 38 00 67 04 00 00 00 00 00 01 00 01 00 82 
00 26 45 00 67 04 00 00 00 00 00 01 00 01 00 82 
00 26 60 00 67 04 00 00 00 00 00 01 00 01 00 82 
00 25 8c 00 67 04 00 00 00 00 00 01 00 01 00 82 
00 25 f2 00 67 04 00 00 00 00 00 01 00 01 00 82 
00 26 09 00 67 04 00 00 00 00 00 01 00 01 00 82 
00 24 f6 00 67 04 00 00 00 00 00 01 00 01 00 82 
00 26 7d 00 67 04 00 00 00 00 00 01 00 01 00 82 
00 26 58 00 67 04 00 00 00 00 00 01 00 01 00 82 
00 25 e7 00 67 04 00 00 00 00 00 01 00 01 00 82 
00 25 ca 00 67 04 00 00 00 00 00 01 00 01 00 82 
00 25 83 00 67 04 00 00 00 00 00 01 00 01 00 82 
00 25 bf 00 67 04 00 00 00 00 00 01 00 01 00 82 
00 26 09 00 67 04 00 00 00 00 00 01 00 01 00 82 
00 26 30 00 67 04 00 00 00 00 00 01 00 01 00 82 
00 25 ec 00 67 04 00 00 00 00 00 01 00 01 00 82 
00 26 a3 00 67 04 00 00 00 00 00 01 00 01 00 82 
00 26 1f 00 67 04 00 00 00 00 00 01 00 01 00 82 
00 26 9d 00 67 04 00 00 00 00 00 01 00 01 00 82 
00 25 f4 00 67 04 00 00 00 00 00 01 00 01 00 82 
00 25 d2 00 67 04 00 00 00 00 00 01 00 01 00 82 
00 26 7f 00 67 04 00 00 00 00 00 01 00 01 00 82 
00 26 10 00 67 04 00 00 00 00 00 01 00 01 00 82 
00 26 03 00 67 04 00 00 00 00 00 01 00 01 00 82 
00 26 8c 00 67 04 00 00 00 00 00 01 00 01 00 82 
00 26 68 00 67 04 00 00 00 00 00 01 00 01 00 82 
00 25 c5 00 67 04 00 00 00 00 00 01 00 01 00 82 
00 26 6a 00 67 04 00 00 00 00 00 01 00 01 00 82 
00 25 a8 00 67 04 00 00 00 00 00 01 00 01 00 82 
00 25 b2 00 67 04 00 00 00 00 00 01 00 01 00 82 
00 26 27 00 67 04 00 00 00 00 00 01 00 01 00 82 
00 25 f2 00 67 04 00 00 00 00 00 01 00 01 00 82 
00 25 fa 00 67 04 00 00 00 00 00 01 00 01 00 82 
00 25 a1 00 67 04 00 00 00 00 00 01 00 01 00 82 
00 25 6c 00 67 04 00 00 00 00 00 01 00 01 00 82 
00 26 23 00 67 04 00 00 00 00 00 01 00 01 00 82 
00 25 4d 00 67 04 00 00 00 00 00 01 00 01 00 82 
00 25 d8 00 67 04 00 00 00 00 00 01 00 01 00 82 
00 26 3e 00 67 04 00 00 00 00 00 01 00 01 00 82 
00 25 e5 00 67 04 00 00 00 00 00 01 00 01 00 82 
00 26 c5 00 67 04 00 00 00 00 00 01 00 01 00 82 
00 25 bd 00 67 04 00 00 00 00 00 01 00 01 00 82 
00 26 bd 00 67 04 00 00 00 00 00 01 00 01 00 82 
00 26 5c 00 67 04 00 00 00 00 00 01 00 01 00 82 
00 25 ce 00 67 04 00 00 00 00 00 01 00 01 00 82 
00 26 09 00 67 04 00 00 00 00 00 01 00 01 00 82 
00 26 52 00 67 04 00 00 00 00 00 01 00 01 00 82 
00 25 94 00 67 04 00 00 00 00 00 01 00 01 00 82 
00 25 53 00 67 04 00 00 00 00 00 01 00 01 00 82 
00 25 8a 00 67 04 00 00 00 00 00 01 00 01 00 82 
00 25 e1 00 67 04 00 00 00 00 00 01 00 01 00 82 
00 26 36 00 67 04 00 00 00 00 00 01 00 01 00 82 
00 26 43 00 67 04 00 00 00 00 00 01 00 01 00 82 
00 25 ff 00 67 04 00 00 00 00 00 01 00 01 00 82 
00 26 0e 00 67 04 00 00 00 00 00 01 00 01 00 82 
00 25 68 00 67 04 00 00 00 00 00 01 00 01 00 82 
00 25 c3 00 67 04 00 00 00 00 00 01 00 01 00 82 
00 25 38 00 67 04 00 00 00 00 00 01 00 01 00 82 
00 24 c1 00 67 04 00 00 00 00 00 01 00 01 00 82 
00 26 32 00 67 04 00 00 00 00 00 01 00 01 00 82 
00 25 41 00 67 04 00 00 00 00 00 01 00 01 00 82 
00 25 bd 00 67 04 00 00 00 00 00 01 00 01 00 82 
00 25 27 00 67 04 00 00 00 00 00 01 00 01 00 82 
00 25 7b 00 67 04 00 00 00 00 00 01 00 01 00 82 
00 25 d8 00 67 04 00 00 00 00 00 01 00 01 00 82 
00 26 0e 00 67 04 00 00 00 00 00 01 00 01 00 82 
00 25 f2 00 67 04 00 00 00 00 00 01 00 01 00 82 
00 25 f6 00 67 04 00 00 00 00 00 01 00 01 00 82 
00 26 18 00 67 04 00 00 00 00 00 01 00 01 00 82 
00 25 79 00 67 04 00 00 00 00 00 01 00 01 00 82 
00 25 d4 00 67 04 00 00 00 00 00 01 00 01 00 82 
00 25 ce 00 67 04 00 00 00 00 00 01 00 01 00 82 
00 25 b9 00 67 04 00 00 00 00 00 01 00 01 00 82 
00 25 79 00 67 04 00 00 00 00 00 01 00 01 00 82 
00 25 18 00 67 04 00 00 00 00 00 01 00 01 00 82 
00 26 03 00 67 04 00 00 00 00 00 01 00 01 00 82 
00 25 30 00 67 04 00 00 00 00 00 01 00 01 00 82 
00 26 12 00 67 04 00 00 00 00 00 01 00 01 00 82 
00 26 41 00 67 04 00 00 00 00 00 01 00 01 00 82 
00 25 53 00 67 04 00 00 00 00 00 01 00 01 00 82 
00 26 21 00 67 04 00 00 00 00 00 01 00 01 00 82 
00 26 1f 00 67 04 00 00 00 00 00 01 00 01 00 82 
00 25 c1 00 67 04 00 00 00 00 00 01 00 01 00 82 
00 25 d2 00 67 04 00 00 00 00 00 01 00 01 00 82 
00 25 83 00 67 04 00 00 00 00 00 01 00 01 00 82 
00 25 88 00 67 04 00 00 00 00 00 01 00 01 00 82 
00 26 1f 00 67 04 00 00 00 00 00 01 00 01 00 82 
00 25 d2 00 67 04 00 00 00 00 00 01 00 01 00 82 
00 26 5c 00 67 04 00 00 00 00 00 01 00 01 00 82 
00 26 d6 00 67 04 00 00 00 00 00 01 00 01 00 82 
00 25 e1 00 67 04 00 00 00 00 00 01 00 01 00 82 
00 26 0e 00 67 04 00 00 00 00 00 01 00 01 00 82 
00 26 23 00 67 04 00 00 00 00 00 01 00 01 00 82 
00 25 8e 00 67 04 00 00 00 00 00 01 00 01 00 82 
00 25 d4 00 67 04 00 00 00 00 00 01 00 01 00 82 
00 25 d2 00 67 04 00 00 00 00 00 01 00 01 00 82 
00 25 8e 00 67 04 00 00 00 00 00 01 00 01 00 82 
00 26 1a 00 67 04 00 00 00 00 00 01 00 01 00 82 
00 26 f6 00 67 04 00 00 00 00 00 01 00 01 00 82 
00 25 ee 00 67 04 00 00 00 00 00 01 00 01 00 82 
00 26 1c 00 67 04 00 00 00 00 00 01 00 01 00 82 
00 25 df 00 67 04 00 00 00 00 00 01 00 01 00 82 
00 26 bf 00 67 04 00 00 00 00 00 01 00 01 00 82 
00 26 68 00 67 04 00 00 00 00 00 01 00 01 00 82 
00 25 99 00 67 04 00 00 00 00 00 01 00 01 00 82 
00 25 a8 00 67 04 00 00 00 00 00 01 00 01 00 82 
00 25 2d 00 67 04 00 00 00 00 00 01 00 01 00 82 
00 26 07 00 67 04 00 00 00 00 00 01 00 01 00 82 
00 25 29 00 67 04 00 00 00 00 00 01 00 01 00 82 
00 25 bf 00 67 04 00 00 00 00 00 01 00 01 00 82 
00 26 29 00 67 04 00 00 00 00 00 01 00 01 00 82 
00 25 90 00 67 04 00 00 00 00 00 01 00 01 00 82 
00 25 dd 00 67 04 00 00 00 00 00 01 00 01 00 82 
00 26 9d 00 67 04 00 00 00 00 00 01 00 01 00 82 
00 26 0e 00 67 04 00 00 00 00 00 01 00 01 00 82 
00 25 b2 00 67 04 00 00 00 00 00 01 00 01 00 82 
00 25 ce 00 67 04 00 00 00 00 00 01 00 01 00 82 
00 25 57 00 67 04 00 00 00 00 00 01 00 01 00 82 
00 25 d6 00 67 04 00 00 00 00 00 01 00 01 00 82 
00 25 53 00 67 04 00 00 00 00 00 01 00 01 00 82 
00 26 4f 00 67 04 00 00 00 00 00 01 00 01 00 82 
00 26 94 00 67 04 00 00 00 00 00 01 00 01 00 82 
00 26 03 00 67 04 00 00 00 00 00 01 00 01 00 82 
00 25 61 00 67 04 00 00 00 00 00 01 00 01 00 82 
00 25 6c 00 67 04 00 00 00 00 00 01 00 01 00 82 
00 25 29 00 67 04 00 00 00 00 00 01 00 01 00 82 
00 25 1c 00 67 04 00 00 00 00 00 01 00 01 00 82 
00 25 61 00 67 04 00 00 00 00 00 01 00 01 00 82 
00 25 bb 00 67 04 00 00 00 00 00 01 00 01 00 82 
00 25 47 00 67 04 00 00 00 00 00 01 00 01 00 82 
00 25 83 00 67 04 00 00 00 00 00 01 00 01 00 82 
00 26 8a 00 67 04 00 00 00 00 00 01 00 01 00 82 
00 25 9b 00 67 04 00 00 00 00 00 01 00 01 00 82 
00 26 16 00 67 04 00 00 00 00 00 01 00 01 00 82 
00 25 a8 00 67 04 00 00 00 00 00 01 00 01 00 82 
00 25 79 00 67 04 00 00 00 00 00 01 00 01 00 82 
00 25 e7 00 67 04 00 00 00 00 00 01 00 01 00 82 
00 26 9f 00 67 04 00 00 00 00 00 01 00 01 00 82 
00 25 bd 00 67 04 00 00 00 00 00 01 00 01 00 82 
00 25 ce 00 67 04 00 00 00 00 00 01 00 01 00 82 
00 25 ee 00 67 04 00 00 00 00 00 01 00 01 00 82 
00 24 ce 00 67 04 00 00 00 00 00 01 00 01 00 82 
00 25 dd 00 67 04 00 00 00 00 00 01 00 01 00 82 
00 26 1f 00 67 04 00 00 00 00 00 01 00 01 00 82 
00 25 7d 00 67 04 00 00 00 00 00 01 00 01 00 82 
00 25 aa 00 67 04 00 00 00 00 00 01 00 01 00 82 
00 25 e9 00 67 04 00 00 00 00 00 01 00 01 00 82 
00 25 d0 00 67 04 00 00 00 00 00 01 00 01 00 82 
00 26 4b 00 67 04 00 00 00 00 00 01 00 01 00 82 
00 26 07 00 67 04 00 00 00 00 00 01 00 01 00 82 
00 25 9d 00 67 04 00 00 00 00 00 01 00 01 00 82 
00 25 18 00 67 04 00 00 00 00 00 01 00 01 00 82 
00 26 18 00 67 04 00 00 00 00 00 01 00 01 00 82 
00 26 0e 00 67 04 00 00 00 00 00 01 00 01 00 82 
00 25 70 00 67 04 00 00 00 00 00 01 00 01 00 82 
00 25 6a 00 67 04 00 00 00 00 00 01 00 01 00 82 
00 25 66 00 67 04 00 00 00 00 00 01 00 01 00 82 
00 25 7b 00 67 04 00 00 00 00 00 01 00 01 00 82 
00 25 fd 00 67 04 00 00 00 00 00 01 00 01 00 82 
00 25 f6 00 67 04 00 00 00 00 00 01 00 01 00 82 
00 25 9b 00 67 04 00 00 00 00 00 01 00 01 00 82 
00 25 e9 00 67 04 00 00 00 00 00 01 00 01 00 82 
00 26 21 00 67 04 00 00 00 00 00 01 00 01 00 82 
00 25 f6 00 67 04 00 00 00 00 00 01 00 01 00 82 
00 25 e3 00 67 04 00 00 00 00 00 01 00 01 00 82 
00 26 0e 00 67 04 00 00 00 00 00 01 00 01 00 82 
00 25 99 00 67 04 00 00 00 00 00 01 00 01 00 82 
00 25 7b 00 67 04 00 00 00 00 00 01 00 01 00 82 
00 25 b0 00 67 04 00 00 00 00 00 01 00 01 00 82 
00 26 38 00 67 04 00 00 00 00 00 01 00 01 00 82 
00 25 c5 00 67 04 00 00 00 00 00 01 00 01 00 82 
00 26 25 00 67 04 00 00 00 00 00 01 00 01 00 82 
00 26 1f 00 67 04 00 00 00 00 00 01 00 01 00 82 
00 25 e7 00 67 04 00 00 00 00 00 01 00 01 00 82 
00 26 05 00 67 04 00 00 00 00 00 01 00 01 00 82 
00 26 a1 00 67 04 00 00 00 00 00 01 00 01 00 82 
00 26 41 00 67 04 00 00 00 00 00 01 00 01 00 82 
00 26 47 00 67 04 00 00 00 00 00 01 00 01 00 82 
00 25 f8 00 67 04 00 00 00 00 00 01 00 01 00 82 
00 25 f4 00 67 04 00 00 00 00 00 01 00 01 00 82 
00 25 b9 00 67 04 00 00 00 00 00 01 00 01 00 82 
00 26 83 00 67 04 00 00 00 00 00 01 00 01 00 82 
00 25 c3 00 67 04 00 00 00 00 00 01 00 01 00 82 
00 25 7f 00 67 04 00 00 00 00 00 01 00 01 00 82 
00 25 6c 00 67 04 00 00 00 00 00 01 00 01 00 82 
00 25 64 00 67 04 00 00 00 00 00 01 00 01 00 82 
00 25 bf 00 67 04 00 00 00 00 00 01 00 01 00 82 
00 26 1c 00 67 04 00 00 00 00 00 01 00 01 00 82 
00 26 07 00 67 04 00 00 00 00 00 01 00 01 00 82 
00 26 1f 00 67 04 00 00 00 00 00 01 00 01 00 82 
00 25 99 00 67 04 00 00 00 00 00 01 00 01 00 82 
00 25 a5 00 67 04 00 00 00 00 00 01 00 01 00 82 
00 25 b9 00 67 04 00 00 00 00 00 01 00 01 00 82 
00 27 16 00 67 04 00 00 00 00 00 01 00 01 00 82 
00 25 6a 00 67 04 00 00 00 00 00 01 00 01 00 82 
00 25 b2 00 67 04 00 00 00 00 00 01 00 01 00 82 
00 25 f2 00 67 04 00 00 00 00 00 01 00 01 00 82 
00 25 b4 00 67 04 00 00 00 00 00 01 00 01 00 82 
00 25 c3 00 67 04 00 00 00 00 00 01 00 01 00 82 
00 26 7b 00 67 04 00 00 00 00 00 01 00 01 00 82 
00 25 c7 00 67 04 00 00 00 00 00 01 00 01 00 82 
00 25 8a 00 67 04 00 00 00 00 00 01 00 01 00 82 
00 25 ca 00 67 04 00 00 00 00 00 01 00 01 00 82 
00 26 21 00 67 04 00 00 00 00 00 01 00 01 00 82 
00 25 df 00 67 04 00 00 00 00 00 01 00 01 00 82 
00 26 3a 00 67 04 00 00 00 00 00 01 00 01 00 82 
00 25 c1 00 67 04 00 00 00 00 00 01 00 01 00 82 
00 25 f2 00 67 04 00 00 00 00 00 01 00 01 00 82 
00 26 12 00 67 04 00 00 00 00 00 01 00 01 00 82 
00 25 c1 00 67 04 00 00 00 00 00 01 00 01 00 82 
00 25 b6 00 67 04 00 00 00 00 00 01 00 01 00 82 
00 25 45 00 67 04 00 00 00 00 00 01 00 01 00 82 
00 25 3e 00 67 04 00 00 00 00 00 01 00 01 00 82 
00 25 9d 00 67 04 00 00 00 00 00 01 00 01 00 82 
00 25 d2 00 67 04 00 00 00 00 00 01 00 01 00 82 
00 25 97 00 67 04 00 00 00 00 00 01 00 01 00 82 
00 25 fd 00 67 04 00 00 00 00 00 01 00 01 00 82 
00 26 cc 00 67 04 00 00 00 00 00 01 00 01 00 82 
00 26 21 00 67 04 00 00 00 00 00 01 00 01 00 82 
00 26 1c 00 67 04 00 00 00 00 00 01 00 01 00 82 
00 25 8e 00 67 04 00 00 00 00 00 01 00 01 00 82 
00 25 8a 00 67 04 00 00 00 00 00 01 00 01 00 82 
00 25 bf 00 67 04 00 00 00 00 00 01 00 01 00 82 
00 25 41 00 67 04 00 00 00 00 00 01 00 01 00 82 
00 25 d2 00 67 04 00 00 00 00 00 01 00 01 00 82 
00 26 97 00 67 04 00 00 00 00 00 01 00 01 00 82 
00 25 ec 00 67 04 00 00 00 00 00 01 00 01 00 82 
00 26 6c 00 67 04 00 00 00 00 00 01 00 01 00 82 
00 26 14 00 67 04 00 00 00 00 00 01 00 01 00 82 
00 26 92 00 67 04 00 00 00 00 00 01 00 01 00 82 
00 25 bb 00 67 04 00 00 00 00 00 01 00 01 00 82 
00 26 c5 00 67 04 00 00 00 00 00 01 00 01 00 82 
00 26 14 00 67 04 00 00 00 00 00 01 00 01 00 82 
00 25 fd 00 67 04 00 00 00 00 00 01 00 01 00 82 
00 25 db 00 67 04 00 00 00 00 00 01 00 01 00 82 
00 25 f0 00 67 04 00 00 00 00 00 01 00 01 00 82 
00 25 d6 00 67 04 00 00 00 00 00 01 00 01 00 82 
00 25 9f 00 67 04 00 00 00 00 00 01 00 01 00 82 
00 25 f0 00 67 04 00 00 00 00 00 01 00 01 00 82 
00 25 70 00 67 04 00 00 00 00 00 01 00 01 00 82 
00 25 b2 00 67 04 00 00 00 00 00 01 00 01 00 82 
00 25 8e 00 67 04 00 00 00 00 00 01 00 01 00 82 
00 25 88 00 67 04 00 00 00 00 00 01 00 01 00 82 
00 25 c5 00 67 04 00 00 00 00 00 01 00 01 00 82 
00 25 ee 00 67 04 00 00 00 00 00 01 00 01 00 82 
00 26 09 00 67 04 00 00 00 00 00 01 00 01 00 82 
00 26 72 00 67 04 00 00 00 00 00 01 00 01 00 82 
00 27 10 00 67 04 00 00 00 00 00 01 00 01 00 82 
00 25 df 00 67 04 00 00 00 00 00 01 00 01 00 82 
00 26 2d 00 67 04 00 00 00 00 00 01 00 01 00 82 
00 25 bb 00 67 04 00 00 00 00 00 01 00 01 00 82 
00 25 ac 00 67 04 00 00 00 00 00 01 00 01 00 82 
00 26 23 00 67 04 00 00 00 00 00 01 00 01 00 82 
00 25 c3 00 67 04 00 00 00 00 00 01 00 01 00 82 
00 26 30 00 67 04 00 00 00 00 00 01 00 01 00 82 
00 25 b9 00 67 04 00 00 00 00 00 01 00 01 00 82 
00 26 0b 00 67 04 00 00 00 00 00 01 00 01 00 82 
00 25 79 00 67 04 00 00 00 00 00 01 00 01 00 82 
00 26 3a 00 67 04 00 00 00 00 00 01 00 01 00 82 
00 25 5d 00 67 04 00 00 00 00 00 01 00 01 00 82 
00 25 d2 00 67 04 00 00 00 00 00 01 00 01 00 82 
00 25 df 00 67 04 00 00 00 00 00 01 00 01 00 82 
00 26 60 00 67 04 00 00 00 00 00 01 00 01 00 82 
00 25 ce 00 67 04 00 00 00 00 00 01 00 01 00 82 
00 26 07 00 67 04 00 00 00 00 00 01 00 01 00 82 
00 26 4f 00 67 04 00 00 00 00 00 01 00 01 00 82 
00 25 68 00 67 04 00 00 00 00 00 01 00 01 00 82 
00 26 4b 00 67 04 00 00 00 00 00 01 00 01 00 82 
00 25 cc 00 67 04 00 00 00 00 00 01 00 01 00 82 
00 26 12 00 67 04 00 00 00 00 00 01 00 01 00 82 
00 25 7d 00 67 04 00 00 00 00 00 01 00 01 00 82 
00 26 77 00 67 04 00 00 00 00 00 01 00 01 00 82 
00 26 41 00 67 04 00 00 00 00 00 01 00 01 00 82 
00 26 aa 00 67 04 00 00 00 00 00 01 00 01 00 82 
00 26 e1 00 67 04 00 00 00 00 00 01 00 01 00 82 
00 26 1f 00 67 04 00 00 00 00 00 01 00 01 00 82 
00 25 bf 00 67 04 00 00 00 00 00 01 00 01 00 82 
00 26 6c 00 67 04 00 00 00 00 00 01 00 01 00 82 
00 25 8c 00 67 04 00 00 00 00 00 01 00 01 00 82 
00 26 25 00 67 04 00 00 00 00 00 01 00 01 00 82 
00 25 f2 00 67 04 00 00 00 00 00 01 00 01 00 82 
00 25 83 00 67 04 00 00 00 00 00 01 00 01 00 82 
00 25 d2 00 67 04 00 00 00 00 00 01 00 01 00 82 
00 26 7b 00 67 04 00 00 00 00 00 01 00 01 00 82 
00 26 6c 00 67 04 00 00 00 00 00 01 00 01 00 82 
00 26 5a 00 67 04 00 00 00 00 00 01 00 01 00 82 
00 26 41 00 67 04 00 00 00 00 00 01 00 01 00 82 
00 26 16 00 67 04 00 00 00 00 00 01 00 01 00 82 
00 25 d2 00 67 04 00 00 00 00 00 01 00 01 00 82 
00 25 ca 00 67 04 00 00 00 00 00 01 00 01 00 82 
00 24 bb 00 67 04 00 00 00 00 00 01 00 01 00 82 
00 26 68 00 67 04 00 00 00 00 00 01 00 01 00 82 
00 25 e9 00 67 04 00 00 00 00 00 01 00 01 00 82 
00 25 79 00 67 04 00 00 00 00 00 01 00 01 00 82 
00 26 03 00 67 04 00 00 00 00 00 01 00 01 00 82 
00 25 df 00 67 04 00 00 00 00 00 01 00 01 00 82 
00 25 d2 00 67 04 00 00 00 00 00 01 00 01 00 82 
00 25 6a 00 67 04 00 00 00 00 00 01 00 01 00 82 
00 25 bb 00 67 04 00 00 00 00 00 01 00 01 00 82 
00 25 66 00 67 04 00 00 00 00 00 01 00 01 00 82 
00 25 34 00 67 04 00 00 00 00 00 01 00 01 00 82 
00 25 97 00 67 04 00 00 00 00 00 01 00 01 00 82 
00 25 c5 00 67 04 00 00 00 00 00 01 00 01 00 82 
00 25 03 00 67 04 00 00 00 00 00 01 00 01 00 82 
00 25 77 00 67 04 00 00 00 00 00 01 00 01 00 82 
00 25 6c 00 67 04 00 00 00 00 00 01 00 01 00 82 
00 25 36 00 67 04 00 00 00 00 00 01 00 01 00 82 
00 25 90 00 67 04 00 00 00 00 00 01 00 01 00 82 
00 25 34 00 67 04 00 00 00 00 00 01 00 01 00 82 
00 24 f6 00 67 04 00 00 00 00 00 01 00 01 00 82 
00 25 d8 00 67 04 00 00 00 00 00 01 00 01 00 82 
00 25 47 00 67 04 00 00 00 00 00 01 00 01 00 82 
00 25 3c 00 67 04 00 00 00 00 00 01 00 01 00 82 
00 24 e1 00 67 04 00 00 00 00 00 01 00 01 00 82 
00 25 ac 00 67 04 00 00 00 00 00 01 00 01 00 82 
00 25 d8 00 67 04 00 00 00 00 00 01 00 01 00 82 
00 26 4b 00 67 04 00 00 00 00 00 01 00 01 00 82 
00 25 94 00 67 04 00 00 00 00 00 01 00 01 00 82 
00 25 a8 00 67 04 00 00 00 00 00 01 00 01 00 82 
00 25 e5 00 67 04 00 00 00 00 00 01 00 01 00 82 
00 26 29 00 67 04 00 00 00 00 00 01 00 01 00 82 
00 25 d8 00 67 04 00 00 00 00 00 01 00 01 00 82 
00 25 1f 00 67 04 00 00 00 00 00 01 00 01 00 82 
00 26 56 00 67 04 00 00 00 00 00 01 00 01 00 82 
00 25 df 00 67 04 00 00 00 00 00 01 00 01 00 82 
00 25 9f 00 67 04 00 00 00 00 00 01 00 01 00 82 
00 26 79 00 67 04 00 00 00 00 00 01 00 01 00 82 
00 26 0b 00 67 04 00 00 00 00 00 01 00 01 00 82 
00 26 81 00 67 04 00 00 00 00 00 01 00 01 00 82 
00 25 bf 00 67 04 00 00 00 00 00 01 00 01 00 82 
00 25 ac 00 67 04 00 00 00 00 00 01 00 01 00 82 
00 25 6a 00 67 04 00 00 00 00 00 01 00 01 00 82 
00 25 55 00 67 04 00 00 00 00 00 01 00 01 00 82 
00 25 97 00 67 04 00 00 00 00 00 01 00 01 00 82 
00 26 34 00 67 04 00 00 00 00 00 01 00 01 00 82 
00 26 d6 00 67 04 00 00 00 00 00 01 00 01 00 82 
00 26 56 00 67 04 00 00 00 00 00 01 00 01 00 82 
00 26 27 00 67 04 00 00 00 00 00 01 00 01 00 82 
00 26 58 00 67 04 00 00 00 00 00 01 00 01 00 82 
00 25 b9 00 67 04 00 00 00 00 00 01 00 01 00 82 
00 25 b2 00 67 04 00 00 00 00 00 01 00 01 00 82 
00 25 43 00 67 04 00 00 00 00 00 01 00 01 00 82 
00 25 ff 00 67 04 00 00 00 00 00 01 00 01 00 82 
00 26 5e 00 67 04 00 00 00 00 00 01 00 01 00 82 
00 25 c3 00 67 04 00 00 00 00 00 01 00 01 00 82 
00 25 a8 00 67 04 00 00 00 00 00 01 00 01 00 82 
00 26 41 00 67 04 00 00 00 00 00 01 00 01 00 82 
00 26 45 00 67 04 00 00 00 00 00 01 00 01 00 82 
00 26 58 00 67 04 00 00 00 00 00 01 00 01 00 82 
00 26 e5 00 67 04 00 00 00 00 00 01 00 01 00 82 
00 25 ce 00 67 04 00 00 00 00 00 01 00 01 00 82 
00 26 32 00 67 04 00 00 00 00 00 01 00 01 00 82 
00 26 25 00 67 04 00 00 00 00 00 01 00 01 00 82 
00 25 77 00 67 04 00 00 00 00 00 01 00 01 00 82 
00 25 18 00 67 04 00 00 00 00 00 01 00 01 00 82 
00 25 d8 00 67 04 00 00 00 00 00 01 00 01 00 82 
00 25 1f 00 67 04 00 00 00 00 00 01 00 01 00 82 
00 25 b9 00 67 04 00 00 00 00 00 01 00 01 00 82 
00 26 43 00 67 04 00 00 00 00 00 01 00 01 00 82 
00 26 32 00 67 04 00 00 00 00 00 01 00 01 00 82 
00 26 0b 00 67 04 00 00 00 00 00 01 00 01 00 82 
00 25 4b 00 67 04 00 00 00 00 00 01 00 01 00 82 
00 26 58 00 67 04 00 00 00 00 00 01 00 01 00 82 
00 25 f6 00 67 04 00 00 00 00 00 01 00 01 00 82 
00 26 1c 00 67 04 00 00 00 00 00 01 00 01 00 82 
00 26 5e 00 67 04 00 00 00 00 00 01 00 01 00 82 
00 25 cc 00 67 04 00 00 00 00 00 01 00 01 00 82 
00 26 01 00 67 04 00 00 00 00 00 01 00 01 00 82 
00 25 cc 00 67 04 00 00 00 00 00 01 00 01 00 82 
00 25 e7 00 67 04 00 00 00 00 00 01 00 01 00 82 
00 26 1f 00 67 04 00 00 00 00 00 01 00 01 00 82 
00 26 dd 00 67 04 00 00 00 00 00 01 00 01 00 82 
00 26 21 00 67 04 00 00 00 00 00 01 00 01 00 82 
00 26 41 00 67 04 00 00 00 00 00 01 00 01 00 82 
00 25 fa 00 67 04 00 00 00 00 00 01 00 01 00 82 
00 25 ee 00 67 04 00 00 00 00 00 01 00 01 00 82 
00 25 fd 00 67 04 00 00 00 00 00 01 00 01 00 82 
00 25 f6 00 67 04 00 00 00 00 00 01 00 01 00 82 
00 26 47 00 67 04 00 00 00 00 00 01 00 01 00 82 
00 25 e5 00 67 04 00 00 00 00 00 01 00 01 00 82 
00 25 43 00 67 04 00 00 00 00 00 01 00 01 00 82 
00 25 34 00 67 04 00 00 00 00 00 01 00 01 00 82 
00 25 a8 00 67 04 00 00 00 00 00 01 00 01 00 82 
00 25 5f 00 67 04 00 00 00 00 00 01 00 01 00 82 
00 26 1a 00 67 04 00 00 00 00 00 01 00 01 00 82 
00 26 92 00 67 04 00 00 00 00 00 01 00 01 00 82 
00 26 58 00 67 04 00 00 00 00 00 01 00 01 00 82 
00 26 6e 00 67 04 00 00 00 00 00 01 00 01 00 82 
00 24 f0 00 67 04 00 00 00 00 00 01 00 01 00 82 
00 25 db 00 67 04 00 00 00 00 00 01 00 01 00 82 
00 25 c1 00 67 04 00 00 00 00 00 01 00 01 00 82 
00 25 4d 00 67 04 00 00 00 00 00 01 00 01 00 82 
00 25 d4 00 67 04 00 00 00 00 00 01 00 01 00 82 
00 25 77 00 67 04 00 00 00 00 00 01 00 01 00 82 
00 25 09 00 67 04 00 00 00 00 00 01 00 01 00 82 
00 25 83 00 67 04 00 00 00 00 00 01 00 01 00 82 
00 25 7b 00 67 04 00 00 00 00 00 01 00 01 00 82 
00 25 83 00 67 04 00 00 00 00 00 01 00 01 00 82 
00 25 90 00 67 04 00 00 00 00 00 01 00 01 00 82 
00 25 43 00 67 04 00 00 00 00 00 01 00 01 00 82 
00 25 79 00 67 04 00 00 00 00 00 01 00 01 00 82 
00 24 ff 00 67 04 00 00 00 00 00 01 00 01 00 82 
00 25 cc 00 67 04 00 00 00 00 00 01 00 01 00 82 
00 25 ce 00 67 04 00 00 00 00 00 01 00 01 00 82 
00 25 ce 00 67 04 00 00 00 00 00 01 00 01 00 82 
00 25 6a 00 67 04 00 00 00 00 00 01 00 01 00 82 
00 26 3e 00 67 04 00 00 00 00 00 01 00 01 00 82 
00 26 6e 00 67 04 00 00 00 00 00 01 00 01 00 82 
00 26 49 00 67 04 00 00 00 00 00 01 00 01 00 82 
00 25 d2 00 67 04 00 00 00 00 00 01 00 01 00 82 
00 26 3c 00 67 04 00 00 00 00 00 01 00 01 00 82 
00 25 34 00 67 04 00 00 00 00 00 01 00 01 00 82 
00 25 4d 00 67 04 00 00 00 00 00 01 00 01 00 82 
00 25 e1 00 67 04 00 00 00 00 00 01 00 01 00 82 
00 25 c1 00 67 04 00 00 00 00 00 01 00 01 00 82 
00 25 ae 00 67 04 00 00 00 00 00 01 00 01 00 82 
00 25 f6 00 67 04 00 00 00 00 00 01 00 01 00 82 
00 26 cc 00 67 04 00 00 00 00 00 01 00 01 00 82 
00 25 a8 00 67 04 00 00 00 00 00 01 00 01 00 82 
00 25 f2 00 67 04 00 00 00 00 00 01 00 01 00 82 
00 26 36 00 67 04 00 00 00 00 00 01 00 01 00 82 
00 26 1c 00 67 04 00 00 00 00 00 01 00 01 00 82 
00 25 cc 00 67 04 00 00 00 00 00 01 00 01 00 82 
00 26 23 00 67 04 00 00 00 00 00 01 00 01 00 82 
00 25 e3 00 67 04 00 00 00 00 00 01 00 01 00 82 
00 26 01 00 67 04 00 00 00 00 00 01 00 01 00 82 
00 26 4f 00 67 04 00 00 00 00 00 01 00 01 00 82 
00 26 30 00 67 04 00 00 00 00 00 01 00 01 00 82 
00 25 14 00 67 04 00 00 00 00 00 01 00 01 00 82 
00 26 4b 00 67 04 00 00 00 00 00 01 00 01 00 82 
00 25 97 00 67 04 00 00 00 00 00 01 00 01 00 82 
00 26 23 00 67 04 00 00 00 00 00 01 00 01 00 82 
00 26 3a 00 67 04 00 00 00 00 00 01 00 01 00 82 
00 26 16 00 67 04 00 00 00 00 00 01 00 01 00 82 
00 26 4b 00 67 04 00 00 00 00 00 01 00 01 00 82 
00 25 f8 00 67 04 00 00 00 00 00 01 00 01 00 82 
00 25 a5 00 67 04 00 00 00 00 00 01 00 01 00 82 
00 26 18 00 67 04 00 00 00 00 00 01 00 01 00 82 
00 26 4f 00 67 04 00 00 00 00 00 01 00 01 00 82 
00 26 5e 00 67 04 00 00 00 00 00 01 00 01 00 82 
00 25 90 00 67 04 00 00 00 00 00 01 00 01 00 82 
00 25 d2 00 67 04 00 00 00 00 00 01 00 01 00 82 
00 26 0e 00 67 04 00 00 00 00 00 01 00 01 00 82 
00 25 f8 00 67 04 00 00 00 00 00 01 00 01 00 82 
00 26 97 00 67 04 00 00 00 00 00 01 00 01 00 82 
00 26 3c 00 67 04 00 00 00 00 00 01 00 01 00 82 
00 26 21 00 67 04 00 00 00 00 00 01 00 01 00 82 
00 26 66 00 67 04 00 00 00 00 00 01 00 01 00 82 
00 25 fd 00 67 04 00 00 00 00 00 01 00 01 00 82 
00 26 01 00 67 04 00 00 00 00 00 01 00 01 00 82 
00 26 5e 00 67 04 00 00 00 00 00 01 00 01 00 82 
00 26 58 00 67 04 00 00 00 00 00 01 00 01 00 82 
00 26 79 00 67 04 00 00 00 00 00 01 00 01 00 82 
00 26 52 00 67 04 00 00 00 00 00 01 00 01 00 82 
00 26 6a 00 67 04 00 00 00 00 00 01 00 01 00 82 
00 26 79 00 67 04 00 00 00 00 00 01 00 01 00 82 
00 26 6c 00 67 04 00 00 00 00 00 01 00 01 00 82 
00 26 4b 00 67 04 00 00 00 00 00 01 00 01 00 82 
00 25 f4 00 67 04 00 00 00 00 00 01 00 01 00 82 
00 26 68 00 67 04 00 00 00 00 00 01 00 01 00 82 
00 26 25 00 67 04 00 00 00 00 00 01 00 01 00 82 
00 26 fa 00 67 04 00 00 00 00 00 01 00 01 00 82 
00 26 18 00 67 04 00 00 00 00 00 01 00 01 00 82 
00 26 6c 00 67 04 00 00 00 00 00 01 00 01 00 82 
00 26 0e 00 67 04 00 00 00 00 00 01 00 01 00 82 
00 26 18 00 67 04 00 00 00 00 00 01 00 01 00 82 
00 26 88 00 67 04 00 00 00 00 00 01 00 01 00 82 
00 26 58 00 67 04 00 00 00 00 00 01 00 01 00 82 
00 26 18 00 67 04 00 00 00 00 00 01 00 01 00 82 
00 25 b6 00 67 04 00 00 00 00 00 01 00 01 00 82 
00 25 b2 00 67 04 00 00 00 00 00 01 00 01 00 82 
00 25 a3 00 67 04 00 00 00 00 00 01 00 01 00 82 
00 25 ee 00 67 04 00 00 00 00 00 01 00 01 00 82 
00 26 9d 00 67 04 00 00 00 00 00 01 00 01 00 82 
00 26 10 00 67 04 00 00 00 00 00 01 00 01 00 82 
00 26 27 00 67 04 00 00 00 00 00 01 00 01 00 82 
00 26 66 00 67 04 00 00 00 00 00 01 00 01 00 82 
00 25 df 00 67 04 00 00 00 00 00 01 00 01 00 82 
00 25 ee 00 67 04 00 00 00 00 00 01 00 01 00 82 
00 25 a8 00 67 04 00 00 00 00 00 01 00 01 00 82 
00 25 4f 00 67 04 00 00 00 00 00 01 00 01 00 82 
00 26 32 00 67 04 00 00 00 00 00 01 00 01 00 82 
00 26 70 00 67 04 00 00 00 00 00 01 00 01 00 82 
00 26 54 00 67 04 00 00 00 00 00 01 00 01 00 82 
00 26 70 00 67 04 00 00 00 00 00 01 00 01 00 82 
00 26 7d 00 67 04 00 00 00 00 00 01 00 01 00 82 
00 26 09 00 67 04 00 00 00 00 00 01 00 01 00 82 
00 26 5c 00 67 04 00 00 00 00 00 01 00 01 00 82 
00 25 bf 00 67 04 00 00 00 00 00 01 00 01 00 82 
00 26 07 00 67 04 00 00 00 00 00 01 00 01 00 82 
00 26 0e 00 67 04 00 00 00 00 00 01 00 01 00 82 
00 26 54 00 67 04 00 00 00 00 00 01 00 01 00 82 
00 26 58 00 67 04 00 00 00 00 00 01 00 01 00 82 
00 25 d6 00 67 04 00 00 00 00 00 01 00 01 00 82 
00 26 0b 00 67 04 00 00 00 00 00 01 00 01 00 82 
00 26 88 00 67 04 00 00 00 00 00 01 00 01 00 82 
00 27 14 00 67 04 00 00 00 00 00 01 00 01 00 82 
00 25 a8 00 67 04 00 00 00 00 00 01 00 01 00 82 
00 26 25 00 67 04 00 00 00 00 00 01 00 01 00 82 
00 25 d8 00 67 04 00 00 00 00 00 01 00 01 00 82 
00 25 d4 00 67 04 00 00 00 00 00 01 00 01 00 82 
00 25 79 00 67 04 00 00 00 00 00 01 00 01 00 82 
00 25 aa 00 67 04 00 00 00 00 00 01 00 01 00 82 
00 26 30 00 67 04 00 00 00 00 00 01 00 01 00 82 
00 25 79 00 67 04 00 00 00 00 00 01 00 01 00 82 
00 26 38 00 67 04 00 00 00 00 00 01 00 01 00 82 
00 26 86 00 67 04 00 00 00 00 00 01 00 01 00 82 
00 25 81 00 67 04 00 00 00 00 00 01 00 01 00 82 
00 25 b2 00 67 04 00 00 00 00 00 01 00 01 00 82 
00 25 6c 00 67 04 00 00 00 00 00 01 00 01 00 82 
00 25 9f 00 67 04 00 00 00 00 00 01 00 01 00 82 
00 25 25 00 67 04 00 00 00 00 00 01 00 01 00 82 
00 26 36 00 67 04 00 00 00 00 00 01 00 01 00 82 
00 25 f0 00 67 04 00 00 00 00 00 01 00 01 00 82 
00 25 57 00 67 04 00 00 00 00 00 01 00 01 00 82 
00 26 27 00 67 04 00 00 00 00 00 01 00 01 00 82 
00 25 92 00 67 04 00 00 00 00 00 01 00 01 00 82 
00 25 d8 00 67 04 00 00 00 00 00 01 00 01 00 82 
00 26 1c 00 67 04 00 00 00 00 00 01 00 01 00 82 
00 25 61 00 67 04 00 00 00 00 00 01 00 01 00 82 
00 25 f8 00 67 04 00 00 00 00 00 01 00 01 00 82 
00 25 88 00 67 04 00 00 00 00 00 01 00 01 00 82 
00 25 d4 00 67 04 00 00 00 00 00 01 00 01 00 82 
00 25 68 00 67 04 00 00 00 00 00 01 00 01 00 82 
00 27 25 00 67 04 00 00 00 00 00 01 00 01 00 82 
00 25 88 00 67 04 00 00 00 00 00 01 00 01 00 82 
00 26 5e 00 67 04 00 00 00 00 00 01 00 01 00 82 
00 27 1f 00 67 04 00 00 00 00 00 01 00 01 00 82 
00 26 58 00 67 04 00 00 00 00 00 01 00 01 00 82 
00 26 1c 00 67 04 00 00 00 00 00 01 00 01 00 82 
00 25 d4 00 67 04 00 00 00 00 00 01 00 01 00 82 
00 26 a8 00 67 04 00 00 00 00 00 01 00 01 00 82 
00 26 21 00 67 04 00 00 00 00 00 01 00 01 00 82 
00 26 23 00 67 04 00 00 00 00 00 01 00 01 00 82 
00 25 6c 00 67 04 00 00 00 00 00 01 00 01 00 82 
00 25 47 00 67 04 00 00 00 00 00 01 00 01 00 82 
00 25 ca 00 67 04 00 00 00 00 00 01 00 01 00 82 
00 25 29 00 67 04 00 00 00 00 00 01 00 01 00 82 
00 25 f8 00 67 04 00 00 00 00 00 01 00 01 00 82 
00 26 bd 00 67 04 00 00 00 00 00 01 00 01 00 82 
00 25 dd 00 67 04 00 00 00 00 00 01 00 01 00 82 
00 26 5a 00 67 04 00 00 00 00 00 01 00 01 00 82 
00 26 1f 00 67 04 00 00 00 00 00 01 00 01 00 82 
00 26 38 00 67 04 00 00 00 00 00 01 00 01 00 82 
00 26 05 00 67 04 00 00 00 00 00 01 00 01 00 82 
00 25 4b 00 67 04 00 00 00 00 00 01 00 01 00 82 
00 26 03 00 67 04 00 00 00 00 00 01 00 01 00 82 
00 26 ae 00 67 04 00 00 00 00 00 01 00 01 00 82 
00 26 1a 00 67 04 00 00 00 00 00 01 00 01 00 82 
00 25 e3 00 67 04 00 00 00 00 00 01 00 01 00 82 
00 26 0e 00 67 04 00 00 00 00 00 01 00 01 00 82 
00 25 66 00 67 04 00 00 00 00 00 01 00 01 00 82 
00 25 4f 00 67 04 00 00 00 00 00 01 00 01 00 82 
00 26 05 00 67 04 00 00 00 00 00 01 00 01 00 82 
00 26 21 00 67 04 00 00 00 00 00 01 00 01 00 82 
00 26 92 00 67 04 00 00 00 00 00 01 00 01 00 82 
00 26 10 00 67 04 00 00 00 00 00 01 00 01 00 82 
00 25 ee 00 67 04 00 00 00 00 00 01 00 01 00 82 
00 25 53 00 67 04 00 00 00 00 00 01 00 01 00 82 
00 26 03 00 67 04 00 00 00 00 00 01 00 01 00 82 
00 26 5e 00 67 04 00 00 00 00 00 01 00 01 00 82 
00 26 23 00 67 04 00 00 00 00 00 01 00 01 00 82 
00 25 f4 00 67 04 00 00 00 00 00 01 00 01 00 82 
00 26 60 00 67 04 00 00 00 00 00 01 00 01 00 82 
00 25 bd 00 67 04 00 00 00 00 00 01 00 01 00 82 
00 24 f6 00 67 04 00 00 00 00 00 01 00 01 00 82 
00 25 e1 00 67 04 00 00 00 00 00 01 00 01 00 82 
00 26 8e 00 67 04 00 00 00 00 00 01 00 01 00 82 
00 25 d2 00 67 04 00 00 00 00 00 01 00 01 00 82 
00 25 8c 00 67 04 00 00 00 00 00 01 00 01 00 82 
00 25 ac 00 67 04 00 00 00 00 00 01 00 01 00 82 
00 26 3a 00 67 04 00 00 00 00 00 01 00 01 00 82 
00 25 b0 00 67 04 00 00 00 00 00 01 00 01 00 82 
00 25 49 00 67 04 00 00 00 00 00 01 00 01 00 82 
00 25 dd 00 67 04 00 00 00 00 00 01 00 01 00 82 
00 25 88 00 67 04 00 00 00 00 00 01 00 01 00 82 
00 26 32 00 67 04 00 00 00 00 00 01 00 01 00 82 
00 26 34 00 67 04 00 00 00 00 00 01 00 01 00 82 
00 25 4b 00 00 00 00 00 00 01 00 00 67 04 00 82 
00 25 d8 00 67 04 00 00 00 00 00 00 00 01 00 82 
00 25 bb 00 67 04 00 00 00 00 00 00 00 01 00 82 
00 25 a5 00 67 04 00 00 00 00 00 00 00 01 00 82 
00 25 e9 00 67 04 00 00 00 00 00 00 00 01 00 82 
00 27 12 00 67 04 00 00 00 00 00 00 00 01 00 82 
00 26 0b 00 67 04 00 00 00 00 00 00 00 01 00 82 
00 25 f6 00 67 04 00 00 00 00 00 00 00 01 00 82 
00 25 3a 00 67 04 00 00 00 00 00 00 00 01 00 82 
00 26 2d 00 67 04 00 00 00 00 00 00 00 01 00 82 
00 26 94 00 67 04 00 00 00 00 00 00 00 01 00 82 
00 25 bb 00 67 04 00 00 00 00 00 00 00 01 00 82 
00 26 01 00 67 04 00 00 00 00 00 00 00 01 00 82 
00 26 52 00 67 04 00 00 00 00 00 00 00 01 00 82 
00 25 d4 00 67 04 00 00 00 00 00 00 00 01 00 82 
00 25 d6 00 67 04 00 00 00 00 00 00 00 01 00 82 
00 26 a1 00 67 04 00 00 00 00 00 00 00 01 00 82 
00 25 b4 00 67 04 00 00 00 00 00 00 00 01 00 82 
00 25 fd 00 67 04 00 00 00 00 00 00 00 01 00 82 
00 25 b2 00 67 04 00 00 00 00 00 00 00 01 00 82 
00 26 97 00 67 04 00 00 00 00 00 00 00 01 00 82 
00 26 c5 00 67 04 00 00 00 00 00 00 00 01 00 82 
00 25 5d 00 67 04 00 00 00 00 00 00 00 01 00 82 
00 25 dd 00 67 04 00 00 00 00 00 00 00 01 00 82 
00 25 c3 00 67 04 00 00 00 00 00 00 00 01 00 82 
00 26 12 00 67 04 00 00 00 00 00 00 00 01 00 82 
00 25 90 00 67 04 00 00 00 00 00 00 00 01 00 82 
00 26 58 00 67 04 00 00 00 00 00 00 00 01 00 82 
00 25 5f 00 67 04 00 00 00 00 00 00 00 01 00 82 
00 25 fa 00 67 04 00 00 00 00 00 00 00 01 00 82 
00 25 64 00 67 04 00 00 00 00 00 00 00 01 00 82 
00 25 70 00 67 04 00 00 00 00 00 00 00 01 00 82 
00 25 92 00 67 04 00 00 00 00 00 00 00 01 00 82 
00 26 75 00 67 04 00 00 00 00 00 00 00 01 00 82 
00 26 12 00 67 04 00 00 00 00 00 00 00 01 00 82 
00 25 fa 00 67 04 00 00 00 00 00 00 00 01 00 82 
00 25 d8 00 67 04 00 00 00 00 00 00 00 01 00 82 
00 25 bb 00 67 04 00 00 00 00 00 00 00 01 00 82 
00 25 4f 00 67 04 00 00 00 00 00 00 00 01 00 82 
00 26 25 00 67 04 00 00 00 00 00 00 00 01 00 82 
00 25 e1 00 67 04 00 00 00 00 00 00 00 01 00 82 
00 26 4d 00 67 04 00 00 00 00 00 00 00 01 00 82 
00 26 09 00 67 04 00 00 00 00 00 00 00 01 00 82 
00 25 b2 00 67 04 00 00 00 00 00 00 00 01 00 82 
00 26 01 00 67 04 00 00 00 00 00 00 00 01 00 82 
00 26 25 00 67 04 00 00 00 00 00 00 00 01 00 82 
00 25 ce 00 67 04 00 00 00 00 00 00 00 01 00 82 
00 25 cc 00 67 04 00 00 00 00 00 00 00 01 00 82 
00 25 79 00 67 04 00 00 00 00 00 00 00 01 00 82 
00 25 dd 00 67 04 00 00 00 00 00 00 00 01 00 82 
00 25 d4 00 67 04 00 00 00 00 00 00 00 01 00 82 
00 26 ac 00 67 04 00 00 00 00 00 00 00 01 00 82 
00 25 29 00 67 04 00 00 00 00 00 00 00 01 00 82 
00 25 e9 00 67 04 00 00 00 00 00 00 00 01 00 82 
00 26 4b 00 67 04 00 00 00 00 00 00 00 01 00 82 
00 25 bf 00 67 04 00 00 00 00 00 00 00 01 00 82 
00 25 e5 00 67 04 00 00 00 00 00 00 00 01 00 82 
00 25 2d 00 67 04 00 00 00 00 00 00 00 01 00 82 
00 26 18 00 67 04 00 00 00 00 00 00 00 01 00 82 
00 25 f4 00 67 04 00 00 00 00 00 00 00 01 00 82 
00 25 ca 00 67 04 00 00 00 00 00 00 00 01 00 82 
00 25 f8 00 67 04 00 00 00 00 00 00 00 01 00 82 
00 26 77 00 67 04 00 00 00 00 00 00 00 01 00 82 
00 25 a8 00 67 04 00 00 00 00 00 00 00 01 00 82 
00 26 58 00 67 04 00 00 00 00 00 00 00 01 00 82 
00 26 01 00 67 04 00 00 00 00 00 00 00 01 00 82 
00 26 aa 00 67 04 00 00 00 00 00 00 00 01 00 82 
00 26 05 00 67 04 00 00 00 00 00 00 00 01 00 82 
00 26 05 00 67 04 00 00 00 00 00 00 00 01 00 82 
00 25 e5 00 67 04 00 00 00 00 00 00 00 01 00 82 
00 25 ee 00 67 04 00 00 00 00 00 00 00 01 00 82 
00 26 03 00 67 04 00 00 00 00 00 00 00 01 00 82 
00 25 f0 00 67 04 00 00 00 00 00 00 00 01 00 82 
00 26 27 00 67 04 00 00 00 00 00 00 00 01 00 82 
00 26 b6 00 67 04 00 00 00 00 00 00 00 01 00 82 
00 26 10 00 67 04 00 00 00 00 00 00 00 01 00 82 
00 26 e3 00 67 04 00 00 00 00 00 00 00 01 00 82 
00 26 4d 00 67 04 00 00 00 00 00 00 00 01 00 82 
00 26 4d 00 67 04 00 00 00 00 00 00 00 01 00 82 
00 25 3e 00 67 04 00 00 00 00 00 00 00 01 00 82 
00 25 b2 00 67 04 00 00 00 00 00 00 00 01 00 82 
00 25 d8 00 67 04 00 00 00 00 00 00 00 01 00 82 
00 25 9b 00 67 04 00 00 00 00 00 00 00 01 00 82 
00 25 6c 00 67 04 00 00 00 00 00 00 00 01 00 82 
00 25 a8 00 67 04 00 00 00 00 00 00 00 01 00 82 
00 25 41 00 67 04 00 00 00 00 00 00 00 01 00 82 
00 25 88 00 67 04 00 00 00 00 00 00 00 01 00 82 
00 25 df 00 67 04 00 00 00 00 00 00 00 01 00 82 
00 26 77 00 67 04 00 00 00 00 00 00 00 01 00 82 
00 25 72 00 67 04 00 00 00 00 00 00 00 01 00 82 
00 25 86 00 67 04 00 00 00 00 00 00 00 01 00 82 
00 25 61 00 67 04 00 00 00 00 00 00 00 01 00 82 
00 26 72 00 67 04 00 00 00 00 00 00 00 01 00 82 
00 25 88 00 67 04 00 00 00 00 00 00 00 01 00 82 
00 26 38 00 67 04 00 00 00 00 00 00 00 01 00 82 
00 26 ca 00 67 04 00 00 00 00 00 00 00 01 00 82 
00 26 38 00 67 04 00 00 00 00 00 00 00 01 00 82 
00 25 f0 00 67 04 00 00 00 00 00 00 00 01 00 82 
00 25 55 00 67 04 00 00 00 00 00 00 00 01 00 82 
00 25 d2 00 67 04 00 00 00 00 00 00 00 01 00 82 
00 26 1a 00 67 04 00 00 00 00 00 00 00 01 00 82 
00 25 f0 00 67 04 00 00 00 00 00 00 00 01 00 82 
00 25 5d 00 67 04 00 00 00 00 00 00 00 01 00 82 
00 25 ff 00 67 04 00 00 00 00 00 00 00 01 00 82 
00 25 d6 00 67 04 00 00 00 00 00 00 00 01 00 82 
00 25 f4 00 67 04 00 00 00 00 00 00 00 01 00 82 
00 26 29 00 67 04 00 00 00 00 00 00 00 01 00 82 
00 25 b2 00 67 04 00 00 00 00 00 00 00 01 00 82 
00 25 bb 00 67 04 00 00 00 00 00 00 00 01 00 82 
00 25 f0 00 67 04 00 00 00 00 00 00 00 01 00 82 
00 25 ca 00 67 04 00 00 00 00 00 00 00 01 00 82 
00 25 a1 00 67 04 00 00 00 00 00 00 00 01 00 82 
00 25 9f 00 67 04 00 00 00 00 00 00 00 01 00 82 
00 25 2b 00 67 04 00 00 00 00 00 00 00 01 00 82 
00 24 ff 00 67 04 00 00 00 00 00 00 00 01 00 82 
00 25 a1 00 67 04 00 00 00 00 00 00 00 01 00 82 
00 25 4f 00 67 04 00 00 00 00 00 00 00 01 00 82 
00 25 7f 00 67 04 00 00 00 00 00 00 00 01 00 82 
00 26 25 00 67 04 00 00 00 00 00 00 00 01 00 82 
00 25 34 00 67 04 00 00 00 00 00 00 00 01 00 82 
00 26 66 00 67 04 00 00 00 00 00 00 00 01 00 82 
00 26 2d 00 67 04 00 00 00 00 00 00 00 01 00 82 
00 26 e1 00 67 04 00 00 00 00 00 00 00 01 00 82 
00 25 79 00 67 04 00 00 00 00 00 00 00 01 00 82 
00 26 36 00 67 04 00 00 00 00 00 00 00 01 00 82 
00 25 61 00 67 04 00 00 00 00 00 00 00 01 00 82 
00 25 4b 00 67 04 00 00 00 00 00 00 00 01 00 82 
00 25 d2 00 67 04 00 00 00 00 00 00 00 01 00 82 
00 25 b6 00 67 04 00 00 00 00 00 00 00 01 00 82 
00 25 7f 00 67 04 00 00 00 00 00 00 00 01 00 82 
00 25 f2 00 67 04 00 00 00 00 00 00 00 01 00 82 
00 26 7b 00 67 04 00 00 00 00 00 00 00 01 00 82 
00 25 27 00 67 04 00 00 00 00 00 00 00 01 00 82 
00 26 47 00 67 04 00 00 00 00 00 00 00 01 00 82 
00 25 b0 00 67 04 00 00 00 00 00 00 00 01 00 82 
00 26 36 00 67 04 00 00 00 00 00 00 00 01 00 82 
00 25 a3 00 67 04 00 00 00 00 00 00 00 01 00 82 
00 25 ff 00 67 04 00 00 00 00 00 00 00 01 00 82 
00 26 2d 00 67 04 00 00 00 00 00 00 00 01 00 82 
00 26 10 00 67 04 00 00 00 00 00 00 00 01 00 82 
00 26 54 00 67 04 00 00 00 00 00 00 00 01 00 82 
00 25 9f 00 67 04 00 00 00 00 00 00 00 01 00 82 
00 25 cc 00 67 04 00 00 00 00 00 00 00 01 00 82 
00 25 75 00 67 04 00 00 00 00 00 00 00 01 00 82 
00 25 41 00 67 04 00 00 00 00 00 00 00 01 00 82 
00 25 8a 00 67 04 00 00 00 00 00 00 00 01 00 82 
00 26 5e 00 67 04 00 00 00 00 00 00 00 01 00 82 
00 26 8c 00 67 04 00 00 00 00 00 00 00 01 00 82 
00 25 01 00 67 04 00 00 00 00 00 00 00 01 00 82 
00 25 df 00 67 04 00 00 00 00 00 00 00 01 00 82 
00 26 58 00 67 04 00 00 00 00 00 00 00 01 00 82 
00 25 92 00 67 04 00 00 00 00 00 00 00 01 00 82 
00 25 c1 00 67 04 00 00 00 00 00 00 00 01 00 82 
00 25 b0 00 67 04 00 00 00 00 00 00 00 01 00 82 
00 25 f0 00 67 04 00 00 00 00 00 00 00 01 00 82 
00 26 34 00 67 04 00 00 00 00 00 00 00 01 00 82 
00 25 a8 00 67 04 00 00 00 00 00 00 00 01 00 82 
00 25 f4 00 67 04 00 00 00 00 00 00 00 01 00 82 
00 26 34 00 67 04 00 00 00 00 00 00 00 01 00 82 
00 26 49 00 67 04 00 00 00 00 00 00 00 01 00 82 
00 26 12 00 67 04 00 00 00 00 00 00 00 01 00 82 
00 25 4f 00 67 04 00 00 00 00 00 00 00 01 00 82 
00 25 90 00 67 04 00 00 00 00 00 00 00 01 00 82 
00 25 38 00 67 04 00 00 00 00 00 00 00 01 00 82 
00 26 3a 00 67 04 00 00 00 00 00 00 00 01 00 82 
00 25 18 00 67 04 00 00 00 00 00 00 00 01 00 82 
00 25 aa 00 67 04 00 00 00 00 00 00 00 01 00 82 
00 25 c5 00 67 04 00 00 00 00 00 00 00 01 00 82 
00 26 7d 00 67 04 00 00 00 00 00 00 00 01 00 82 
00 26 c5 00 67 04 00 00 00 00 00 00 00 01 00 82 
00 25 61 00 67 04 00 00 00 00 00 00 00 01 00 82 
00 26 32 00 67 04 00 00 00 00 00 00 00 01 00 82 
00 26 94 00 67 04 00 00 00 00 00 00 00 01 00 82 
00 25 bf 00 67 04 00 00 00 00 00 00 00 01 00 82 
00 25 ec 00 67 04 00 00 00 00 00 00 00 01 00 82 
00 26 6e 00 67 04 00 00 00 00 00 00 00 01 00 82 
00 25 9d 00 67 04 00 00 00 00 00 00 00 01 00 82 
00 25 3a 00 67 04 00 00 00 00 00 00 00 01 00 82 
00 25 fd 00 67 04 00 00 00 00 00 00 00 01 00 82 
00 25 aa 00 67 04 00 00 00 00 00 00 00 01 00 82 
00 25 68 00 67 04 00 00 00 00 00 00 00 01 00 82 
00 25 d8 00 67 04 00 00 00 00 00 00 00 01 00 82 
00 25 d4 00 67 04 00 00 00 00 00 00 00 01 00 82 
00 25 b0 00 67 04 00 00 00 00 00 00 00 01 00 82 
00 25 a5 00 67 04 00 00 00 00 00 00 00 01 00 82 
00 26 45 00 67 04 00 00 00 00 00 00 00 01 00 82 
00 26 0e 00 67 04 00 00 00 00 00 00 00 01 00 82 
00 26 2d 00 67 04 00 00 00 00 00 00 00 01 00 82 
00 25 c7 00 67 04 00 00 00 00 00 00 00 01 00 82 
00 25 a3 00 67 04 00 00 00 00 00 00 00 01 00 82 
00 25 ca 00 67 04 00 00 00 00 00 00 00 01 00 82 
00 26 ca 00 67 04 00 00 00 00 00 00 00 01 00 82 
00 26 43 00 67 04 00 00 00 00 00 00 00 01 00 82 
00 26 34 00 67 04 00 00 00 00 00 00 00 01 00 82 
00 25 f6 00 67 04 00 00 00 00 00 00 00 01 00 82 
00 26 0e 00 67 04 00 00 00 00 00 00 00 01 00 82 
00 25 fd 00 67 04 00 00 00 00 00 00 00 01 00 82 
00 26 7b 00 67 04 00 00 00 00 00 00 00 01 00 82 
00 26 14 00 67 04 00 00 00 00 00 00 00 01 00 82 
00 25 d4 00 67 04 00 00 00 00 00 00 00 01 00 82 
00 25 aa 00 67 04 00 00 00 00 00 00 00 01 00 82 
00 26 60 00 67 04 00 00 00 00 00 00 00 01 00 82 
00 26 1c 00 67 04 00 00 00 00 00 00 00 01 00 82 
00 26 3c 00 67 04 00 00 00 00 00 00 00 01 00 82 
00 26 9d 00 67 04 00 00 00 00 00 00 00 01 00 82 
00 26 3c 00 67 04 00 00 00 00 00 00 00 01 00 82 
00 25 b6 00 67 04 00 00 00 00 00 00 00 01 00 82 
00 26 1a 00 67 04 00 00 00 00 00 00 00 01 00 82 
00 25 e5 00 67 04 00 00 00 00 00 00 00 01 00 82 
00 26 10 00 67 04 00 00 00 00 00 00 00 01 00 82 
00 25 9b 00 67 04 00 00 00 00 00 00 00 01 00 82 
00 26 8a 00 67 04 00 00 00 00 00 00 00 01 00 82 
00 26 6a 00 67 04 00 00 00 00 00 00 00 01 00 82 
00 25 f0 00 67 04 00 00 00 00 00 00 00 01 00 82 
00 25 8e 00 67 04 00 00 00 00 00 00 00 01 00 82 
00 26 56 00 67 04 00 00 00 00 00 00 00 01 00 82 
00 26 30 00 67 04 00 00 00 00 00 00 00 01 00 82 
00 26 52 00 67 04 00 00 00 00 00 00 00 01 00 82 
00 26 bb 00 67 04 00 00 00 00 00 00 00 01 00 82 
00 26 8c 00 67 04 00 00 00 00 00 00 00 01 00 82 
00 26 47 00 67 04 00 00 00 00 00 00 00 01 00 82 
00 26 34 00 67 04 00 00 00 00 00 00 00 01 00 82 
00 25 e5 00 67 04 00 00 00 00 00 00 00 01 00 82 
00 25 f0 00 67 04 00 00 00 00 00 00 00 01 00 82 
00 25 f8 00 67 04 00 00 00 00 00 00 00 01 00 82 
00 26 4f 00 67 04 00 00 00 00 00 00 00 01 00 82 
00 25 fd 00 67 04 00 00 00 00 00 00 00 01 00 82 
00 26 6e 00 67 04 00 00 00 00 00 00 00 01 00 82 
00 25 d6 00 67 04 00 00 00 00 00 00 00 01 00 82 
00 26 7d 00 67 04 00 00 00 00 00 00 00 01 00 82 
00 26 30 00 67 04 00 00 00 00 00 00 00 01 00 82 
00 25 d8 00 67 04 00 00 00 00 00 00 00 01 00 82 
00 25 9d 00 67 04 00 00 00 00 00 00 00 01 00 82 
00 25 7f 00 67 04 00 00 00 00 00 00 00 01 00 82 
00 25 f0 00 67 04 00 00 00 00 00 00 00 01 00 82 
00 26 3a 00 67 04 00 00 00 00 00 00 00 01 00 82 
00 25 e1 00 67 04 00 00 00 00 00 00 00 01 00 82 
00 25 b0 00 67 04 00 00 00 00 00 00 00 01 00 82 
00 26 49 00 67 04 00 00 00 00 00 00 00 01 00 82 
00 25 d0 00 67 04 00 00 00 00 00 00 00 01 00 82 
00 25 b2 00 67 04 00 00 00 00 00 00 00 01 00 82 
00 26 43 00 67 04 00 00 00 00 00 00 00 01 00 82 
00 25 b4 00 67 04 00 00 00 00 00 00 00 01 00 82 
00 25 a8 00 67 04 00 00 00 00 00 00 00 01 00 82 
00 25 97 00 67 04 00 00 00 00 00 00 00 01 00 82 
00 25 9b 00 67 04 00 00 00 00 00 00 00 01 00 82 
00 25 dd 00 67 04 00 00 00 00 00 00 00 01 00 82 
00 25 c1 00 67 04 00 00 00 00 00 00 00 01 00 82 
00 25 99 00 67 04 00 00 00 00 00 00 00 01 00 82 
00 25 e3 00 67 04 00 00 00 00 00 00 00 01 00 82 
00 26 38 00 67 04 00 00 00 00 00 00 00 01 00 82 
00 26 bd 00 67 04 00 00 00 00 00 00 00 01 00 82 
00 26 5c 00 67 04 00 00 00 00 00 00 00 01 00 82 
00 26 01 00 67 04 00 00 00 00 00 00 00 01 00 82 
00 25 f0 00 67 04 00 00 00 00 00 00 00 01 00 82 
00 25 c1 00 67 04 00 00 00 00 00 00 00 01 00 82 
00 25 ff 00 67 04 00 00 00 00 00 00 00 01 00 82 
00 25 99 00 67 04 00 00 00 00 00 00 00 01 00 82 
00 26 32 00 67 04 00 00 00 00 00 00 00 01 00 82 
00 25 dd 00 67 04 00 00 00 00 00 00 00 01 00 82 
00 26 64 00 67 04 00 00 00 00 00 00 00 01 00 82 
00 26 7f 00 67 04 00 00 00 00 00 00 00 01 00 82 
00 25 c7 00 67 04 00 00 00 00 00 00 00 01 00 82 
00 26 10 00 67 04 00 00 00 00 00 00 00 01 00 82 
00 25 9f 00 67 04 00 00 00 00 00 00 00 01 00 82 
00 25 a1 00 67 04 00 00 00 00 00 00 00 01 00 82 
00 25 a3 00 67 04 00 00 00 00 00 00 00 01 00 82 
00 25 df 00 67 04 00 00 00 00 00 00 00 01 00 82 
00 25 ac 00 67 04 00 00 00 00 00 00 00 01 00 82 
00 26 32 00 67 04 00 00 00 00 00 00 00 01 00 82 
00 25 a3 00 67 04 00 00 00 00 00 00 00 01 00 82 
00 26 07 00 67 04 00 00 00 00 00 00 00 01 00 82 
00 26 43 00 67 04 00 00 00 00 00 00 00 01 00 82 
00 25 64 00 67 04 00 00 00 00 00 00 00 01 00 82 
00 25 81 00 67 04 00 00 00 00 00 00 00 01 00 82 
00 25 88 00 67 04 00 00 00 00 00 00 00 01 00 82 
00 26 29 00 67 04 00 00 00 00 00 00 00 01 00 82 
00 26 12 00 67 04 00 00 00 00 00 00 00 01 00 82 
00 25 9d 00 67 04 00 00 00 00 00 00 00 01 00 82 
00 26 4b 00 67 04 00 00 00 00 00 00 00 01 00 82 
00 26 25 00 67 04 00 00 00 00 00 00 00 01 00 82 
00 25 fd 00 67 04 00 00 00 00 00 00 00 01 00 82 
00 26 b9 00 67 04 00 00 00 00 00 00 00 01 00 82 
00 25 f6 00 67 04 00 00 00 00 00 00 00 01 00 82 
00 26 6a 00 67 04 00 00 00 00 00 00 00 01 00 82 
00 25 a8 00 67 04 00 00 00 00 00 00 00 01 00 82 
00 26 2b 00 67 04 00 00 00 00 00 00 00 01 00 82 
00 26 27 00 67 fa 5e 00 00 00 00 00 00 01 00 82 
00 26 27 00 67 fa 5e 00 00 00 00 00 00 01 00 82 
00 25 ce 00 67 fa 5e 00 00 00 00 00 00 01 00 82 
00 25 ce 00 67 fa 5e 00 00 00 00 00 00 01 00 82 
00 25 fa 00 67 fa 5e 00 00 00 00 00 00 01 00 82 
00 25 aa 00 67 fa 5e 00 00 00 00 00 00 01 00 82 
00 25 ce 00 67 fa 5e 00 00 00 00 00 00 01 00 82 
00 25 90 00 67 fa 5e 00 00 00 00 00 00 01 00 82 
00 26 10 00 67 fa 5e 00 00 00 00 00 00 01 00 82 
