ff f0 04 00 68 52 5f 00 00 00 00 01 00 01 00 00 
00 07 6e 00 68 52 5f 00 00 00 00 01 00 01 00 00 
00 0a 01 00 68 52 5f 00 00 00 00 01 00 01 00 7e 
00 09 85 00 68 52 5f 00 00 00 00 01 00 01 00 7e 
00 09 8e 00 68 52 5f 00 00 00 00 01 00 01 00 7e 
00 09 f5 00 68 52 5f 00 00 00 00 01 00 01 00 7e 
00 09 9e 00 68 52 5f 00 00 00 00 01 00 01 00 7e 
00 09 90 00 68 52 5f 00 00 00 00 01 00 01 00 7e 
00 09 7f 00 68 52 5f 00 00 00 00 01 00 01 00 7e 
00 09 ac 00 68 52 5f 00 00 00 00 01 00 01 00 7e 
00 09 d8 00 68 52 5f 00 00 00 00 01 00 01 00 7e 
00 09 ec 00 68 52 5f 00 00 00 00 01 00 01 00 7e 
00 09 bb 00 68 52 5f 00 00 00 00 01 00 01 00 7e 
00 0a 0c 00 68 52 5f 00 00 00 00 01 00 01 00 7e 
00 09 f6 00 68 52 5f 00 00 00 00 01 00 01 00 7e 
00 0a 5a 00 68 52 5f 00 00 00 00 01 00 01 00 7e 
00 09 e1 00 68 52 5f 00 00 00 00 01 00 01 00 7e 
00 0a 0a 00 68 52 5f 00 00 00 00 01 00 01 00 7e 
00 09 bc 00 68 52 5f 00 00 00 00 01 00 01 00 7e 
00 09 f4 00 68 52 5f 00 00 00 00 01 00 01 00 7e 
00 09 e6 00 68 52 5f 00 00 00 00 01 00 01 00 7e 
00 24 2d 00 68 52 5f 00 00 00 00 01 00 01 00 7e 
00 24 65 00 68 52 5f 00 00 00 00 01 00 01 00 7e 
00 24 64 00 68 52 5f 00 00 00 00 01 00 01 00 7e 
00 24 4a 00 68 52 5f 00 00 00 00 01 00 01 00 7e 
00 24 f8 00 68 52 5f 00 00 00 00 01 00 01 00 7e 
00 24 49 00 68 52 5f 00 00 00 00 01 00 01 00 7e 
00 24 7d 00 68 52 5f 00 00 00 00 01 00 01 00 7e 
00 24 bb 00 68 52 5f 00 00 00 00 01 00 01 00 7e 
00 24 77 00 68 52 5f 00 00 00 00 01 00 01 00 7e 
00 24 c1 00 68 52 5f 00 00 00 00 01 00 01 00 7e 
00 24 8a 00 68 52 5f 00 00 00 00 01 00 01 00 7e 
00 24 8d 00 68 52 5f 00 00 00 00 01 00 01 00 7e 
00 24 69 00 68 52 5f 00 00 00 00 01 00 01 00 7e 
00 24 f6 00 68 52 5f 00 00 00 00 01 00 01 00 7e 
00 24 a5 00 68 52 5f 00 00 00 00 01 00 01 00 7e 
00 24 c1 00 68 52 5f 00 00 00 00 01 00 01 00 7e 
00 24 e1 00 68 52 5f 00 00 00 00 01 00 01 00 7e 
00 24 dc 00 68 52 5f 00 00 00 00 01 00 01 00 7e 
00 24 bf 00 68 52 5f 00 00 00 00 01 00 01 00 7e 
00 24 bd 00 68 52 5f 00 00 00 00 01 00 01 00 7e 
00 24 e0 00 68 52 5f 00 00 00 00 01 00 01 00 7e 
00 24 e8 00 68 52 5f 00 00 00 00 01 00 01 00 7e 
00 24 ec 00 68 52 5f 00 00 00 00 01 00 01 00 7e 
00 25 33 00 68 52 5f 00 00 00 00 01 00 01 00 7e 
00 24 ac 00 68 52 5f 00 00 00 00 01 00 01 00 7e 
00 24 c0 00 68 52 5f 00 00 00 00 01 00 01 00 7e 
00 24 a4 00 68 52 5f 00 00 00 00 01 00 01 00 7e 
00 24 dd 00 68 52 5f 00 00 00 00 01 00 01 00 7e 
00 25 89 00 68 52 5f 00 00 00 00 01 00 01 00 7e 
00 24 df 00 68 52 5f 00 00 00 00 01 00 01 00 7e 
00 25 15 00 68 52 5f 00 00 00 00 01 00 01 00 7e 
00 25 59 00 68 52 5f 00 00 00 00 01 00 01 00 7e 
00 24 f2 00 68 52 5f 00 00 00 00 01 00 01 00 7e 
00 25 58 00 68 52 5f 00 00 00 00 01 00 01 00 7e 
00 25 57 00 68 52 5f 00 00 00 00 01 00 01 00 7e 
00 25 2e 00 68 52 5f 00 00 00 00 01 00 01 00 7e 
00 24 d5 00 68 52 5f 00 00 00 00 01 00 01 00 7e 
00 24 fe 00 68 52 5f 00 00 00 00 01 00 01 00 7e 
00 25 22 00 68 52 5f 00 00 00 00 01 00 01 00 7e 
00 25 56 00 68 52 5f 00 00 00 00 01 00 01 00 7e 
00 25 0f 00 68 52 5f 00 00 00 00 01 00 01 00 7e 
00 24 d3 00 68 52 5f 00 00 00 00 01 00 01 00 7e 
00 24 f7 00 68 52 5f 00 00 00 00 01 00 01 00 7e 
00 24 b1 00 68 52 5f 00 00 00 00 01 00 01 00 7e 
00 25 05 00 68 52 5f 00 00 00 00 01 00 01 00 7e 
00 24 d1 00 68 52 5f 00 00 00 00 01 00 01 00 7e 
00 25 0f 00 68 52 5f 00 00 00 00 01 00 01 00 7e 
00 25 24 00 68 52 5f 00 00 00 00 01 00 01 00 7e 
00 25 18 00 68 52 5f 00 00 00 00 01 00 01 00 7e 
00 25 47 00 68 52 5f 00 00 00 00 01 00 01 00 7e 
00 25 08 00 68 52 5f 00 00 00 00 01 00 01 00 7e 
00 25 47 00 68 52 5f 00 00 00 00 01 00 01 00 7e 
00 25 76 00 68 52 5f 00 00 00 00 01 00 01 00 7e 
00 25 65 00 68 52 5f 00 00 00 00 01 00 01 00 7e 
00 24 bd 00 68 52 5f 00 00 00 00 01 00 01 00 7e 
00 24 f6 00 68 52 5f 00 00 00 00 01 00 01 00 7e 
00 25 61 00 68 52 5f 00 00 00 00 01 00 01 00 7e 
00 24 e0 00 68 52 5f 00 00 00 00 01 00 01 00 7e 
00 25 17 00 68 52 5f 00 00 00 00 01 00 01 00 7e 
00 24 ee 00 68 52 5f 00 00 00 00 01 00 01 00 7e 
00 24 d9 00 68 52 5f 00 00 00 00 01 00 01 00 7e 
00 25 38 00 68 52 5f 00 00 00 00 01 00 01 00 7e 
00 25 3e 00 68 52 5f 00 00 00 00 01 00 01 00 7e 
00 24 cf 00 68 52 5f 00 00 00 00 01 00 01 00 7e 
00 25 4f 00 68 52 5f 00 00 00 00 01 00 01 00 7e 
00 25 3b 00 68 52 5f 00 00 00 00 01 00 01 00 7e 
00 25 06 00 68 52 5f 00 00 00 00 01 00 01 00 7e 
00 24 65 00 68 52 5f 00 00 00 00 01 00 01 00 7e 
00 24 ec 00 68 52 5f 00 00 00 00 01 00 01 00 7e 
00 25 2b 00 68 52 5f 00 00 00 00 01 00 01 00 7e 
00 25 00 00 68 52 5f 00 00 00 00 01 00 01 00 7e 
00 25 09 00 68 52 5f 00 00 00 00 01 00 01 00 7e 
00 24 f5 00 68 52 5f 00 00 00 00 01 00 01 00 7e 
00 25 07 00 68 52 5f 00 00 00 00 01 00 01 00 7e 
00 24 a1 00 68 52 5f 00 00 00 00 01 00 01 00 7e 
00 24 c2 00 68 52 5f 00 00 00 00 01 00 01 00 7e 
00 24 ce 00 68 52 5f 00 00 00 00 01 00 01 00 7e 
00 24 ac 00 68 52 5f 00 00 00 00 01 00 01 00 7e 
00 25 43 00 68 52 5f 00 00 00 00 01 00 01 00 7e 
00 24 7c 00 68 52 5f 00 00 00 00 01 00 01 00 7e 
00 24 f9 00 68 52 5f 00 00 00 00 01 00 01 00 7e 
00 24 d4 00 68 52 5f 00 00 00 00 01 00 01 00 7e 
00 25 04 00 68 52 5f 00 00 00 00 01 00 01 00 7e 
00 25 26 00 68 52 5f 00 00 00 00 01 00 01 00 7e 
00 24 e9 00 68 52 5f 00 00 00 00 01 00 01 00 7e 
00 24 fa 00 68 52 5f 00 00 00 00 01 00 01 00 7e 
00 25 02 00 68 52 5f 00 00 00 00 01 00 01 00 7e 
00 25 3d 00 68 52 5f 00 00 00 00 01 00 01 00 7e 
00 24 ea 00 68 52 5f 00 00 00 00 01 00 01 00 7e 
00 25 4b 00 68 52 5f 00 00 00 00 01 00 01 00 7e 
00 25 43 00 68 52 5f 00 00 00 00 01 00 01 00 7e 
00 25 12 00 68 52 5f 00 00 00 00 01 00 01 00 7e 
00 24 ec 00 68 52 5f 00 00 00 00 01 00 01 00 7e 
00 25 7d 00 68 52 5f 00 00 00 00 01 00 01 00 7e 
00 25 09 00 68 52 5f 00 00 00 00 01 00 01 00 7e 
00 24 7c 00 68 52 5f 00 00 00 00 01 00 01 00 7e 
00 24 f8 00 00 00 00 00 00 01 00 00 68 52 5f 7e 
00 25 2b 00 68 52 5f 00 00 00 00 00 00 01 00 7e 
00 24 df 00 68 52 5f 00 00 00 00 00 00 01 00 7e 
00 24 e9 00 68 52 5f 00 00 00 00 00 00 01 00 7e 
00 25 09 00 68 52 5f 00 00 00 00 00 00 01 00 7e 
00 25 49 00 68 52 5f 00 00 00 00 00 00 01 00 7e 
00 25 3b 00 68 52 5f 00 00 00 00 00 00 01 00 7e 
00 24 dc 00 68 52 5f 00 00 00 00 00 00 01 00 7e 
00 24 e8 00 68 52 5f 00 00 00 00 00 00 01 00 7e 
00 24 ef 00 68 52 5f 00 00 00 00 00 00 01 00 7e 
00 24 ee 00 68 52 5f 00 00 00 00 00 00 01 00 7e 
00 25 50 00 68 52 5f 00 00 00 00 00 00 01 00 7e 
00 25 6e 00 68 52 5f 00 00 00 00 00 00 01 00 7e 
00 24 ed 00 68 52 5f 00 00 00 00 00 00 01 00 7e 
00 25 09 00 68 52 5f 00 00 00 00 00 00 01 00 7e 
00 25 66 00 68 52 5f 00 00 00 00 00 00 01 00 7e 
00 25 53 00 68 52 5f 00 00 00 00 00 00 01 00 7e 
00 25 03 00 68 52 5f 00 00 00 00 00 00 01 00 7e 
00 25 26 00 68 52 5f 00 00 00 00 00 00 01 00 7e 
00 25 06 00 68 52 5f 00 00 00 00 00 00 01 00 7e 
00 25 2e 00 68 52 5f 00 00 00 00 00 00 01 00 7e 
00 25 8a 00 68 52 5f 00 00 00 00 00 00 01 00 7e 
00 25 60 00 68 52 5f 00 00 00 00 00 00 01 00 7e 
00 25 12 00 68 52 5f 00 00 00 00 00 00 01 00 7e 
00 25 7f 00 68 52 5f 00 00 00 00 00 00 01 00 7e 
00 25 45 00 68 52 5f 00 00 00 00 00 00 01 00 7e 
00 25 6d 00 68 52 5f 00 00 00 00 00 00 01 00 7e 
00 24 c8 00 68 52 5f 00 00 00 00 00 00 01 00 7e 
00 25 31 00 68 52 5f 00 00 00 00 00 00 01 00 7e 
00 24 f6 00 68 52 5f 00 00 00 00 00 00 01 00 7e 
00 24 f4 00 68 52 5f 00 00 00 00 00 00 01 00 7e 
00 25 17 00 68 52 5f 00 00 00 00 00 00 01 00 7e 
00 24 ec 00 68 52 5f 00 00 00 00 00 00 01 00 7e 
00 24 b1 00 68 52 5f 00 00 00 00 00 00 01 00 7e 
00 25 1f 00 68 52 5f 00 00 00 00 00 00 01 00 7e 
00 24 e3 00 68 52 5f 00 00 00 00 00 00 01 00 7e 
00 24 dd 00 68 52 5f 00 00 00 00 00 00 01 00 7e 
00 25 66 00 68 52 5f 00 00 00 00 00 00 01 00 7e 
00 25 21 00 68 52 5f 00 00 00 00 00 00 01 00 7e 
00 24 de 00 68 52 5f 00 00 00 00 00 00 01 00 7e 
00 25 d1 00 68 52 5f 00 00 00 00 00 00 01 00 7e 
00 25 d7 00 68 52 5f 00 00 00 00 00 00 01 00 7e 
00 25 4d 00 68 52 5f 00 00 00 00 00 00 01 00 7e 
00 25 26 00 68 52 5f 00 00 00 00 00 00 01 00 7e 
00 25 44 00 68 52 5f 00 00 00 00 00 00 01 00 7e 
00 25 5a 00 68 52 5f 00 00 00 00 00 00 01 00 7e 
00 25 67 00 68 52 5f 00 00 00 00 00 00 01 00 7e 
00 25 14 00 68 52 5f 00 00 00 00 00 00 01 00 7e 
00 24 d9 00 68 52 5f 00 00 00 00 00 00 01 00 7e 
00 25 27 00 68 52 5f 00 00 00 00 00 00 01 00 7e 
00 24 e1 00 68 52 5f 00 00 00 00 00 00 01 00 7e 
00 24 b7 00 68 52 5f 00 00 00 00 00 00 01 00 7e 
00 24 a2 00 68 52 5f 00 00 00 00 00 00 01 00 7e 
00 25 32 00 68 52 5f 00 00 00 00 00 00 01 00 7e 
00 25 3c 00 68 52 5f 00 00 00 00 00 00 01 00 7e 
00 24 e1 00 68 52 5f 00 00 00 00 00 00 01 00 7e 
00 24 e2 00 68 52 5f 00 00 00 00 00 00 01 00 7e 
00 25 47 00 68 52 5f 00 00 00 00 00 00 01 00 7e 
00 25 3f 00 68 52 5f 00 00 00 00 00 00 01 00 7e 
00 25 97 00 68 52 5f 00 00 00 00 00 00 01 00 7e 
00 25 06 00 68 52 5f 00 00 00 00 00 00 01 00 7e 
00 25 33 00 68 52 5f 00 00 00 00 00 00 01 00 7e 
00 25 b7 00 68 52 5f 00 00 00 00 00 00 01 00 7e 
00 25 03 00 68 52 5f 00 00 00 00 00 00 01 00 7e 
00 24 d4 00 68 52 5f 00 00 00 00 00 00 01 00 7e 
00 25 81 00 68 52 5f 00 00 00 00 00 00 01 00 7e 
00 25 65 00 68 52 5f 00 00 00 00 00 00 01 00 7e 
00 24 dc 00 68 52 5f 00 00 00 00 00 00 01 00 7e 
00 25 4c 00 68 52 5f 00 00 00 00 00 00 01 00 7e 
00 24 f4 00 68 52 5f 00 00 00 00 00 00 01 00 7e 
00 25 5f 00 68 52 5f 00 00 00 00 00 00 01 00 7e 
00 25 25 00 68 52 5f 00 00 00 00 00 00 01 00 7e 
00 25 08 00 68 52 5f 00 00 00 00 00 00 01 00 7e 
00 24 de 00 68 52 5f 00 00 00 00 00 00 01 00 7e 
00 24 d1 00 68 52 5f 00 00 00 00 00 00 01 00 7e 
00 24 d6 00 68 52 5f 00 00 00 00 00 00 01 00 7e 
00 24 e7 00 68 52 5f 00 00 00 00 00 00 01 00 7e 
00 25 28 00 68 52 5f 00 00 00 00 00 00 01 00 7e 
00 25 56 00 68 52 5f 00 00 00 00 00 00 01 00 7e 
00 25 2a 00 68 52 5f 00 00 00 00 00 00 01 00 7e 
00 25 3f 00 68 52 5f 00 00 00 00 00 00 01 00 7e 
00 25 75 00 68 52 5f 00 00 00 00 00 00 01 00 7e 
00 25 67 00 68 52 5f 00 00 00 00 00 00 01 00 7e 
00 24 e4 00 68 52 5f 00 00 00 00 00 00 01 00 7e 
00 24 d6 00 68 52 5f 00 00 00 00 00 00 01 00 7e 
00 25 8d 00 68 52 5f 00 00 00 00 00 00 01 00 7e 
00 25 a0 00 68 52 5f 00 00 00 00 00 00 01 00 7e 
00 24 98 00 68 52 5f 00 00 00 00 00 00 01 00 7e 
00 25 04 00 68 52 5f 00 00 00 00 00 00 01 00 7e 
00 25 77 00 68 52 5f 00 00 00 00 00 00 01 00 7e 
00 24 c6 00 68 52 5f 00 00 00 00 00 00 01 00 7e 
00 25 11 00 68 52 5f 00 00 00 00 00 00 01 00 7e 
00 25 0b 00 68 52 5f 00 00 00 00 00 00 01 00 7e 
00 25 1c 00 68 52 5f 00 00 00 00 00 00 01 00 7e 
00 24 f5 00 68 52 5f 00 00 00 00 00 00 01 00 7e 
00 25 62 00 68 52 5f 00 00 00 00 00 00 01 00 7e 
00 25 0f 00 68 52 5f 00 00 00 00 00 00 01 00 7e 
00 25 70 00 68 52 5f 00 00 00 00 00 00 01 00 7e 
00 24 82 00 68 52 5f 00 00 00 00 00 00 01 00 7e 
00 25 41 00 68 52 5f 00 00 00 00 00 00 01 00 7e 
00 25 42 00 68 52 5f 00 00 00 00 00 00 01 00 7e 
00 24 fb 00 68 52 5f 00 00 00 00 00 00 01 00 7e 
00 24 d8 00 68 52 5f 00 00 00 00 00 00 01 00 7e 
00 24 dc 00 68 52 5f 00 00 00 00 00 00 01 00 7e 
00 24 cb 00 68 52 5f 00 00 00 00 00 00 01 00 7e 
00 24 c8 00 68 52 5f 00 00 00 00 00 00 01 00 7e 
00 24 c5 00 68 52 5f 00 00 00 00 00 00 01 00 7e 
00 24 c7 00 68 52 5f 00 00 00 00 00 00 01 00 7e 
00 24 ed 00 68 52 5f 00 00 00 00 00 00 01 00 7e 
00 25 18 00 68 52 5f 00 00 00 00 00 00 01 00 7e 
00 25 44 00 68 52 5f 00 00 00 00 00 00 01 00 7e 
00 25 06 00 68 52 5f 00 00 00 00 00 00 01 00 7e 
00 24 b5 00 68 52 5f 00 00 00 00 00 00 01 00 7e 
00 25 71 00 68 52 5f 00 00 00 00 00 00 01 00 7e 
00 24 e7 00 68 52 5f 00 00 00 00 00 00 01 00 7e 
00 24 e6 00 68 52 5f 00 00 00 00 00 00 01 00 7e 
00 25 21 00 68 52 5f 00 00 00 00 00 00 01 00 7e 
00 24 d2 00 68 52 5f 00 00 00 00 00 00 01 00 7e 
00 25 16 00 68 52 5f 00 00 00 00 00 00 01 00 7e 
00 25 23 00 68 52 5f 00 00 00 00 00 00 01 00 7e 
00 24 fe 00 68 52 5f 00 00 00 00 00 00 01 00 7e 
00 24 d0 00 68 52 5f 00 00 00 00 00 00 01 00 7e 
00 25 1f 00 68 52 5f 00 00 00 00 00 00 01 00 7e 
00 24 b1 00 68 52 5f 00 00 00 00 00 00 01 00 7e 
00 25 00 00 68 52 5f 00 00 00 00 00 00 01 00 7e 
00 25 41 00 68 52 5f 00 00 00 00 00 00 01 00 7e 
00 25 25 00 68 52 5f 00 00 00 00 00 00 01 00 7e 
00 24 df 00 68 52 5f 00 00 00 00 00 00 01 00 7e 
00 24 a4 00 68 52 5f 00 00 00 00 00 00 01 00 7e 
00 24 af 00 68 52 5f 00 00 00 00 00 00 01 00 7e 
00 24 9c 00 68 52 5f 00 00 00 00 00 00 01 00 7e 
00 24 ab 00 68 52 5f 00 00 00 00 00 00 01 00 7e 
00 24 d3 00 68 52 5f 00 00 00 00 00 00 01 00 7e 
00 24 d4 00 68 52 5f 00 00 00 00 00 00 01 00 7e 
00 24 9b 00 68 52 5f 00 00 00 00 00 00 01 00 7e 
00 24 e0 00 68 52 5f 00 00 00 00 00 00 01 00 7e 
00 24 a1 00 68 52 5f 00 00 00 00 00 00 01 00 7e 
00 24 75 00 68 52 5f 00 00 00 00 00 00 01 00 7e 
00 24 e8 00 68 52 5f 00 00 00 00 00 00 01 00 7e 
00 25 19 00 68 52 5f 00 00 00 00 00 00 01 00 7e 
00 24 f5 00 68 52 5f 00 00 00 00 00 00 01 00 7e 
00 24 e4 00 68 52 5f 00 00 00 00 00 00 01 00 7e 
00 24 f6 00 68 52 5f 00 00 00 00 00 00 01 00 7e 
00 24 8a 00 68 52 5f 00 00 00 00 00 00 01 00 7e 
00 24 c3 00 68 52 5f 00 00 00 00 00 00 01 00 7e 
00 24 b4 00 68 52 5f 00 00 00 00 00 00 01 00 7e 
00 24 b2 00 68 52 5f 00 00 00 00 00 00 01 00 7e 
00 25 15 00 68 52 5f 00 00 00 00 00 00 01 00 7e 
00 25 25 00 68 52 5f 00 00 00 00 00 00 01 00 7e 
00 24 e1 00 68 52 5f 00 00 00 00 00 00 01 00 7e 
00 25 1b 00 68 52 5f 00 00 00 00 00 00 01 00 7e 
00 25 62 00 68 52 5f 00 00 00 00 00 00 01 00 7e 
00 25 03 00 68 52 5f 00 00 00 00 00 00 01 00 7e 
00 24 ab 00 68 52 5f 00 00 00 00 00 00 01 00 7e 
00 25 26 00 68 52 5f 00 00 00 00 00 00 01 00 7e 
00 24 f3 00 68 52 5f 00 00 00 00 00 00 01 00 7e 
00 24 e0 00 68 52 5f 00 00 00 00 00 00 01 00 7e 
00 24 c0 00 68 52 5f 00 00 00 00 00 00 01 00 7e 
00 24 aa 00 68 52 5f 00 00 00 00 00 00 01 00 7e 
00 24 e2 00 68 52 5f 00 00 00 00 00 00 01 00 7e 
00 25 29 00 68 52 5f 00 00 00 00 00 00 01 00 7e 
00 25 31 00 68 52 5f 00 00 00 00 00 00 01 00 7e 
00 24 d8 00 68 52 5f 00 00 00 00 00 00 01 00 7e 
00 25 15 00 68 52 5f 00 00 00 00 00 00 01 00 7e 
00 24 d9 00 68 52 5f 00 00 00 00 00 00 01 00 7e 
00 25 15 00 68 52 5f 00 00 00 00 00 00 01 00 7e 
00 25 34 00 68 52 5f 00 00 00 00 00 00 01 00 7e 
00 25 2b 00 68 52 5f 00 00 00 00 00 00 01 00 7e 
00 24 b0 00 68 52 5f 00 00 00 00 00 00 01 00 7e 
00 25 01 00 68 52 5f 00 00 00 00 00 00 01 00 7e 
00 25 25 00 68 52 5f 00 00 00 00 00 00 01 00 7e 
00 25 38 00 68 52 5f 00 00 00 00 00 00 01 00 7e 
00 24 f5 00 68 52 5f 00 00 00 00 00 00 01 00 7e 
00 25 16 00 68 52 5f 00 00 00 00 00 00 01 00 7e 
00 25 43 00 68 52 5f 00 00 00 00 00 00 01 00 7e 
00 24 fa 00 68 52 5f 00 00 00 00 00 00 01 00 7e 
00 25 45 00 68 52 5f 00 00 00 00 00 00 01 00 7e 
00 24 dd 00 68 52 5f 00 00 00 00 00 00 01 00 7e 
00 25 49 00 68 52 5f 00 00 00 00 00 00 01 00 7e 
00 25 11 00 68 52 5f 00 00 00 00 00 00 01 00 7e 
00 25 ad 00 68 52 5f 00 00 00 00 00 00 01 00 7e 
00 25 4e 00 68 52 5f 00 00 00 00 00 00 01 00 7e 
00 25 3e 00 68 52 5f 00 00 00 00 00 00 01 00 7e 
00 25 a1 00 68 52 5f 00 00 00 00 00 00 01 00 7e 
00 24 ab 00 68 52 5f 00 00 00 00 00 00 01 00 7e 
00 25 24 00 68 52 5f 00 00 00 00 00 00 01 00 7e 
00 25 05 00 68 52 5f 00 00 00 00 00 00 01 00 7e 
00 25 5c 00 68 52 5f 00 00 00 00 00 00 01 00 7e 
00 25 59 00 68 52 5f 00 00 00 00 00 00 01 00 7e 
00 25 01 00 68 52 5f 00 00 00 00 00 00 01 00 7e 
00 24 f6 00 68 52 5f 00 00 00 00 00 00 01 00 7e 
00 24 ea 00 68 52 5f 00 00 00 00 00 00 01 00 7e 
00 25 62 00 68 52 5f 00 00 00 00 00 00 01 00 7e 
00 25 ad 00 68 52 5f 00 00 00 00 00 00 01 00 7e 
00 25 62 00 68 52 5f 00 00 00 00 00 00 01 00 7e 
00 24 f2 00 68 52 5f 00 00 00 00 00 00 01 00 7e 
00 24 cb 00 68 52 5f 00 00 00 00 00 00 01 00 7e 
00 25 6d 00 68 52 5f 00 00 00 00 00 00 01 00 7e 
00 25 57 00 68 52 5f 00 00 00 00 00 00 01 00 7e 
00 25 4c 00 68 52 5f 00 00 00 00 00 00 01 00 7e 
00 25 07 00 68 52 5f 00 00 00 00 00 00 01 00 7e 
00 25 42 00 68 52 5f 00 00 00 00 00 00 01 00 7e 
00 25 4a 00 68 52 5f 00 00 00 00 00 00 01 00 7e 
00 25 c7 00 68 52 5f 00 00 00 00 00 00 01 00 7e 
00 24 c6 00 68 52 5f 00 00 00 00 00 00 01 00 7e 
00 25 3d 00 68 52 5f 00 00 00 00 00 00 01 00 7e 
00 25 60 00 68 52 5f 00 00 00 00 00 00 01 00 7e 
00 24 93 00 68 52 5f 00 00 00 00 00 00 01 00 7e 
00 24 ec 00 68 52 5f 00 00 00 00 00 00 01 00 7e 
00 25 42 00 68 52 5f 00 00 00 00 00 00 01 00 7e 
00 25 6e 00 68 52 5f 00 00 00 00 00 00 01 00 7e 
00 24 e0 00 68 52 5f 00 00 00 00 00 00 01 00 7e 
00 25 58 00 68 52 5f 00 00 00 00 00 00 01 00 7e 
00 26 15 00 68 52 5f 00 00 00 00 00 00 01 00 7e 
00 25 69 00 68 52 5f 00 00 00 00 00 00 01 00 7e 
00 25 25 00 68 52 5f 00 00 00 00 00 00 01 00 7e 
00 24 f8 00 68 52 5f 00 00 00 00 00 00 01 00 7e 
00 24 fd 00 68 52 5f 00 00 00 00 00 00 01 00 7e 
00 25 5a 00 68 52 5f 00 00 00 00 00 00 01 00 7e 
00 24 8f 00 68 52 5f 00 00 00 00 00 00 01 00 7e 
00 25 0a 00 68 52 5f 00 00 00 00 00 00 01 00 7e 
00 24 cc 00 68 52 5f 00 00 00 00 00 00 01 00 7e 
00 24 f7 00 68 52 5f 00 00 00 00 00 00 01 00 7e 
00 24 bd 00 68 52 5f 00 00 00 00 00 00 01 00 7e 
00 25 15 00 68 52 5f 00 00 00 00 00 00 01 00 7e 
00 25 d9 00 68 52 5f 00 00 00 00 00 00 01 00 7e 
00 25 2a 00 68 52 5f 00 00 00 00 00 00 01 00 7e 
00 25 58 00 68 52 5f 00 00 00 00 00 00 01 00 7e 
00 25 2d 00 68 52 5f 00 00 00 00 00 00 01 00 7e 
00 25 5a 00 68 52 5f 00 00 00 00 00 00 01 00 7e 
00 25 29 00 68 52 5f 00 00 00 00 00 00 01 00 7e 
00 24 bb 00 68 52 5f 00 00 00 00 00 00 01 00 7e 
00 25 0f 00 68 52 5f 00 00 00 00 00 00 01 00 7e 
00 25 05 00 68 52 5f 00 00 00 00 00 00 01 00 7e 
00 24 db 00 68 52 5f 00 00 00 00 00 00 01 00 7e 
00 25 c1 00 68 52 5f 00 00 00 00 00 00 01 00 7e 
00 25 28 00 68 52 5f 00 00 00 00 00 00 01 00 7e 
00 25 41 00 68 52 5f 00 00 00 00 00 00 01 00 7e 
00 25 2c 00 68 52 5f 00 00 00 00 00 00 01 00 7e 
00 25 2a 00 68 52 5f 00 00 00 00 00 00 01 00 7e 
00 25 09 00 68 52 5f 00 00 00 00 00 00 01 00 7e 
00 25 26 00 68 52 5f 00 00 00 00 00 00 01 00 7e 
00 25 4e 00 68 52 5f 00 00 00 00 00 00 01 00 7e 
00 25 84 00 68 52 5f 00 00 00 00 00 00 01 00 7e 
00 24 ed 00 68 52 5f 00 00 00 00 00 00 01 00 7e 
00 25 3a 00 68 52 5f 00 00 00 00 00 00 01 00 7e 
00 25 8a 00 68 52 5f 00 00 00 00 00 00 01 00 7e 
00 25 48 00 68 52 5f 00 00 00 00 00 00 01 00 7e 
00 25 7e 00 68 52 5f 00 00 00 00 00 00 01 00 7e 
00 25 77 00 68 52 5f 00 00 00 00 00 00 01 00 7e 
00 25 5e 00 68 52 5f 00 00 00 00 00 00 01 00 7e 
00 25 99 00 68 52 5f 00 00 00 00 00 00 01 00 7e 
00 25 89 00 68 52 5f 00 00 00 00 00 00 01 00 7e 
00 25 4d 00 68 52 5f 00 00 00 00 00 00 01 00 7e 
00 25 32 00 68 52 5f 00 00 00 00 00 00 01 00 7e 
00 25 5e 00 68 52 5f 00 00 00 00 00 00 01 00 7e 
00 25 41 00 68 52 5f 00 00 00 00 00 00 01 00 7e 
00 25 60 00 68 52 5f 00 00 00 00 00 00 01 00 7e 
00 25 06 00 68 52 5f 00 00 00 00 00 00 01 00 7e 
00 25 6a 00 68 52 5f 00 00 00 00 00 00 01 00 7e 
00 25 58 00 68 52 5f 00 00 00 00 00 00 01 00 7e 
00 25 3b 00 68 52 5f 00 00 00 00 00 00 01 00 7e 
00 25 95 00 68 52 5f 00 00 00 00 00 00 01 00 7e 
00 25 c0 00 68 52 5f 00 00 00 00 00 00 01 00 7e 
00 25 5b 00 68 52 5f 00 00 00 00 00 00 01 00 7e 
00 25 55 00 68 52 5f 00 00 00 00 00 00 01 00 7e 
00 25 ac 00 68 52 5f 00 00 00 00 00 00 01 00 7e 
00 25 72 00 68 52 5f 00 00 00 00 00 00 01 00 7e 
00 25 64 00 68 52 5f 00 00 00 00 00 00 01 00 7e 
00 25 7a 00 68 52 5f 00 00 00 00 00 00 01 00 7e 
00 25 78 00 68 52 5f 00 00 00 00 00 00 01 00 7e 
00 25 12 00 68 52 5f 00 00 00 00 00 00 01 00 7e 
00 25 57 00 68 52 5f 00 00 00 00 00 00 01 00 7e 
00 25 46 00 68 52 5f 00 00 00 00 00 00 01 00 7e 
00 25 62 00 68 52 5f 00 00 00 00 00 00 01 00 7e 
00 25 79 00 68 52 5f 00 00 00 00 00 00 01 00 7e 
00 25 95 00 68 52 5f 00 00 00 00 00 00 01 00 7e 
00 25 47 00 68 52 5f 00 00 00 00 00 00 01 00 7e 
00 25 9f 00 68 52 5f 00 00 00 00 00 00 01 00 7e 
00 25 44 00 68 52 5f 00 00 00 00 00 00 01 00 7e 
00 25 2d 00 68 52 5f 00 00 00 00 00 00 01 00 7e 
00 24 ef 00 68 52 5f 00 00 00 00 00 00 01 00 7e 
00 24 f2 00 68 52 5f 00 00 00 00 00 00 01 00 7e 
00 25 0b 00 68 52 5f 00 00 00 00 00 00 01 00 7e 
00 25 22 00 68 52 5f 00 00 00 00 00 00 01 00 7e 
00 25 cf 00 68 52 5f 00 00 00 00 00 00 01 00 7e 
00 25 5f 00 68 52 5f 00 00 00 00 00 00 01 00 7e 
00 25 6f 00 68 52 5f 00 00 00 00 00 00 01 00 7e 
00 25 6d 00 68 52 5f 00 00 00 00 00 00 01 00 7e 
00 25 49 00 68 52 5f 00 00 00 00 00 00 01 00 7e 
00 25 c0 00 68 52 5f 00 00 00 00 00 00 01 00 7e 
00 25 0b 00 68 52 5f 00 00 00 00 00 00 01 00 7e 
00 25 43 00 68 52 5f 00 00 00 00 00 00 01 00 7e 
00 24 d4 00 68 52 5f 00 00 00 00 00 00 01 00 7e 
00 25 87 00 68 52 5f 00 00 00 00 00 00 01 00 7e 
00 25 4a 00 68 52 5f 00 00 00 00 00 00 01 00 7e 
00 25 2c 00 68 52 5f 00 00 00 00 00 00 01 00 7e 
00 25 8a 00 68 52 5f 00 00 00 00 00 00 01 00 7e 
00 25 06 00 68 52 5f 00 00 00 00 00 00 01 00 7e 
00 25 3c 00 68 52 5f 00 00 00 00 00 00 01 00 7e 
00 25 18 00 68 52 5f 00 00 00 00 00 00 01 00 7e 
00 25 22 00 68 52 5f 00 00 00 00 00 00 01 00 7e 
00 25 28 00 68 52 5f 00 00 00 00 00 00 01 00 7e 
00 25 7e 00 68 52 5f 00 00 00 00 00 00 01 00 7e 
00 25 3e 00 68 52 5f 00 00 00 00 00 00 01 00 7e 
00 25 39 00 68 52 5f 00 00 00 00 00 00 01 00 7e 
00 25 60 00 68 52 5f 00 00 00 00 00 00 01 00 7e 
00 25 cf 00 68 52 5f 00 00 00 00 00 00 01 00 7e 
00 25 6b 00 68 52 5f 00 00 00 00 00 00 01 00 7e 
00 25 16 00 68 52 5f 00 00 00 00 00 00 01 00 7e 
00 25 6c 00 68 52 5f 00 00 00 00 00 00 01 00 7e 
00 25 6f 00 68 52 5f 00 00 00 00 00 00 01 00 7e 
00 25 4d 00 68 52 5f 00 00 00 00 00 00 01 00 7e 
00 24 ce 00 68 52 5f 00 00 00 00 00 00 01 00 7e 
00 24 f2 00 68 52 5f 00 00 00 00 00 00 01 00 7e 
00 25 36 00 68 52 5f 00 00 00 00 00 00 01 00 7e 
00 24 ee 00 68 52 5f 00 00 00 00 00 00 01 00 7e 
00 25 6d 00 68 52 5f 00 00 00 00 00 00 01 00 7e 
00 25 41 00 68 52 5f 00 00 00 00 00 00 01 00 7e 
00 25 11 00 68 52 5f 00 00 00 00 00 00 01 00 7e 
00 24 bb 00 68 52 5f 00 00 00 00 00 00 01 00 7e 
00 25 3c 00 68 52 5f 00 00 00 00 00 00 01 00 7e 
00 25 55 00 68 52 5f 00 00 00 00 00 00 01 00 7e 
00 25 88 00 68 52 5f 00 00 00 00 00 00 01 00 7e 
00 25 1c 00 68 52 5f 00 00 00 00 00 00 01 00 7e 
00 25 6e 00 68 52 5f 00 00 00 00 00 00 01 00 7e 
00 25 43 00 68 52 5f 00 00 00 00 00 00 01 00 7e 
00 24 e2 00 68 52 5f 00 00 00 00 00 00 01 00 7e 
00 25 dc 00 68 52 5f 00 00 00 00 00 00 01 00 7e 
00 25 be 00 68 52 5f 00 00 00 00 00 00 01 00 7e 
00 25 01 00 68 52 5f 00 00 00 00 00 00 01 00 7e 
00 25 67 00 68 52 5f 00 00 00 00 00 00 01 00 7e 
00 25 2d 00 68 52 5f 00 00 00 00 00 00 01 00 7e 
00 25 2c 00 68 52 5f 00 00 00 00 00 00 01 00 7e 
00 25 2c 00 68 52 5f 00 00 00 00 00 00 01 00 7e 
00 25 a9 00 68 52 5f 00 00 00 00 00 00 01 00 7e 
00 25 dc 00 68 52 5f 00 00 00 00 00 00 01 00 7e 
00 25 11 00 68 52 5f 00 00 00 00 00 00 01 00 7e 
00 25 37 00 68 52 5f 00 00 00 00 00 00 01 00 7e 
00 24 fd 00 68 52 5f 00 00 00 00 00 00 01 00 7e 
00 25 12 00 68 52 5f 00 00 00 00 00 00 01 00 7e 
00 25 65 00 68 52 5f 00 00 00 00 00 00 01 00 7e 
00 25 6c 00 68 52 5f 00 00 00 00 00 00 01 00 7e 
00 25 78 00 68 52 5f 00 00 00 00 00 00 01 00 7e 
00 25 7f 00 68 52 5f 00 00 00 00 00 00 01 00 7e 
00 25 8c 00 68 52 5f 00 00 00 00 00 00 01 00 7e 
00 25 26 00 68 52 5f 00 00 00 00 00 00 01 00 7e 
00 25 31 00 68 52 5f 00 00 00 00 00 00 01 00 7e 
00 25 b0 00 68 52 5f 00 00 00 00 00 00 01 00 7e 
00 25 95 00 68 52 5f 00 00 00 00 00 00 01 00 7e 
00 25 ab 00 68 52 5f 00 00 00 00 00 00 01 00 7e 
00 25 76 00 68 52 5f 00 00 00 00 00 00 01 00 7e 
00 25 67 00 68 52 5f 00 00 00 00 00 00 01 00 7e 
00 25 24 00 68 52 5f 00 00 00 00 00 00 01 00 7e 
00 25 82 00 68 52 5f 00 00 00 00 00 00 01 00 7e 
00 25 cd 00 68 52 5f 00 00 00 00 00 00 01 00 7e 
00 25 45 00 68 52 5f 00 00 00 00 00 00 01 00 7e 
00 25 0a 00 68 52 5f 00 00 00 00 00 00 01 00 7e 
00 25 4c 00 68 52 5f 00 00 00 00 00 00 01 00 7e 
00 25 55 00 68 52 5f 00 00 00 00 00 00 01 00 7e 
00 25 76 00 68 52 5f 00 00 00 00 00 00 01 00 7e 
00 25 5f 00 68 52 5f 00 00 00 00 00 00 01 00 7e 
00 24 92 00 68 52 5f 00 00 00 00 00 00 01 00 7e 
00 24 d8 00 68 52 5f 00 00 00 00 00 00 01 00 7e 
00 25 42 00 68 52 5f 00 00 00 00 00 00 01 00 7e 
00 25 62 00 68 52 5f 00 00 00 00 00 00 01 00 7e 
00 25 68 00 68 52 5f 00 00 00 00 00 00 01 00 7e 
00 25 59 00 68 52 5f 00 00 00 00 00 00 01 00 7e 
00 25 64 00 68 52 5f 00 00 00 00 00 00 01 00 7e 
00 25 c0 00 68 52 5f 00 00 00 00 00 00 01 00 7e 
00 25 69 00 68 52 5f 00 00 00 00 00 00 01 00 7e 
00 25 41 00 68 52 5f 00 00 00 00 00 00 01 00 7e 
00 25 26 00 68 52 5f 00 00 00 00 00 00 01 00 7e 
00 25 4b 00 68 52 5f 00 00 00 00 00 00 01 00 7e 
00 25 20 00 68 52 5f 00 00 00 00 00 00 01 00 7e 
00 25 4b 00 68 52 5f 00 00 00 00 00 00 01 00 7e 
00 25 67 00 68 52 5f 00 00 00 00 00 00 01 00 7e 
00 25 ac 00 68 52 5f 00 00 00 00 00 00 01 00 7e 
00 25 43 00 68 52 5f 00 00 00 00 00 00 01 00 7e 
00 25 11 00 68 52 5f 00 00 00 00 00 00 01 00 7e 
00 24 d7 00 68 52 5f 00 00 00 00 00 00 01 00 7e 
00 25 01 00 68 52 5f 00 00 00 00 00 00 01 00 7e 
00 25 71 00 68 52 5f 00 00 00 00 00 00 01 00 7e 
00 25 99 00 68 52 5f 00 00 00 00 00 00 01 00 7e 
00 25 1c 00 68 52 5f 00 00 00 00 00 00 01 00 7e 
00 25 9f 00 68 52 5f 00 00 00 00 00 00 01 00 7e 
00 25 7c 00 68 52 5f 00 00 00 00 00 00 01 00 7e 
00 25 ac 00 68 52 5f 00 00 00 00 00 00 01 00 7e 
00 25 42 00 68 52 5f 00 00 00 00 00 00 01 00 7e 
00 25 71 00 68 52 5f 00 00 00 00 00 00 01 00 7e 
00 25 46 00 68 52 5f 00 00 00 00 00 00 01 00 7e 
00 25 04 00 68 52 5f 00 00 00 00 00 00 01 00 7e 
00 25 0c 00 68 52 5f 00 00 00 00 00 00 01 00 7e 
00 25 0a 00 68 52 5f 00 00 00 00 00 00 01 00 7e 
00 25 46 00 68 52 5f 00 00 00 00 00 00 01 00 7e 
00 25 3b 00 68 52 5f 00 00 00 00 00 00 01 00 7e 
00 25 48 00 68 52 5f 00 00 00 00 00 00 01 00 7e 
00 25 6e 00 68 52 5f 00 00 00 00 00 00 01 00 7e 
00 25 75 00 68 52 5f 00 00 00 00 00 00 01 00 7e 
00 25 c1 00 68 52 5f 00 00 00 00 00 00 01 00 7e 
00 25 33 00 68 52 5f 00 00 00 00 00 00 01 00 7e 
00 25 11 00 68 52 5f 00 00 00 00 00 00 01 00 7e 
00 25 20 00 68 52 5f 00 00 00 00 00 00 01 00 7e 
00 25 47 00 68 52 5f 00 00 00 00 00 00 01 00 7e 
00 25 2b 00 68 52 5f 00 00 00 00 00 00 01 00 7e 
00 25 44 00 68 52 5f 00 00 00 00 00 00 01 00 7e 
00 25 6f 00 68 52 5f 00 00 00 00 00 00 01 00 7e 
00 24 fe 00 68 52 5f 00 00 00 00 00 00 01 00 7e 
00 24 bd 00 68 52 5f 00 00 00 00 00 00 01 00 7e 
00 24 8a 00 68 52 5f 00 00 00 00 00 00 01 00 7e 
00 24 ca 00 68 52 5f 00 00 00 00 00 00 01 00 7e 
00 24 e9 00 68 52 5f 00 00 00 00 00 00 01 00 7e 
00 25 30 00 68 52 5f 00 00 00 00 00 00 01 00 7e 
00 25 03 00 68 52 5f 00 00 00 00 00 00 01 00 7e 
00 25 38 00 68 52 5f 00 00 00 00 00 00 01 00 7e 
00 25 21 00 68 52 5f 00 00 00 00 00 00 01 00 7e 
00 24 cb 00 68 52 5f 00 00 00 00 00 00 01 00 7e 
00 25 04 00 68 52 5f 00 00 00 00 00 00 01 00 7e 
00 25 6f 00 68 52 5f 00 00 00 00 00 00 01 00 7e 
00 25 58 00 68 52 5f 00 00 00 00 00 00 01 00 7e 
00 25 26 00 68 52 5f 00 00 00 00 00 00 01 00 7e 
00 25 90 00 68 52 5f 00 00 00 00 00 00 01 00 7e 
00 24 c0 00 68 52 5f 00 00 00 00 00 00 01 00 7e 
00 24 e9 00 68 52 5f 00 00 00 00 00 00 01 00 7e 
00 24 ee 00 68 52 5f 00 00 00 00 00 00 01 00 7e 
00 25 46 00 68 52 5f 00 00 00 00 00 00 01 00 7e 
00 24 c2 00 68 52 5f 00 00 00 00 00 00 01 00 7e 
00 25 3e 00 68 52 5f 00 00 00 00 00 00 01 00 7e 
00 25 03 00 68 52 5f 00 00 00 00 00 00 01 00 7e 
00 25 12 00 68 52 5f 00 00 00 00 00 00 01 00 7e 
00 24 fd 00 68 52 5f 00 00 00 00 00 00 01 00 7e 
00 24 f8 00 68 52 5f 00 00 00 00 00 00 01 00 7e 
00 25 17 00 68 52 5f 00 00 00 00 00 00 01 00 7e 
00 25 37 00 68 52 5f 00 00 00 00 00 00 01 00 7e 
00 24 99 00 68 52 5f 00 00 00 00 00 00 01 00 7e 
00 25 4f 00 68 52 5f 00 00 00 00 00 00 01 00 7e 
00 25 65 00 68 52 5f 00 00 00 00 00 00 01 00 7e 
00 25 65 00 68 52 5f 00 00 00 00 00 00 01 00 7e 
00 25 23 00 68 52 5f 00 00 00 00 00 00 01 00 7e 
00 25 ce 00 68 52 5f 00 00 00 00 00 00 01 00 7e 
00 25 17 00 68 52 5f 00 00 00 00 00 00 01 00 7e 
00 25 41 00 68 52 5f 00 00 00 00 00 00 01 00 7e 
00 25 25 00 68 52 5f 00 00 00 00 00 00 01 00 7e 
00 25 05 00 68 52 5f 00 00 00 00 00 00 01 00 7e 
00 25 0f 00 68 52 5f 00 00 00 00 00 00 01 00 7e 
00 24 c3 00 68 52 5f 00 00 00 00 00 00 01 00 7e 
00 25 27 00 68 52 5f 00 00 00 00 00 00 01 00 7e 
00 25 4c 00 68 52 5f 00 00 00 00 00 00 01 00 7e 
00 25 0b 00 68 52 5f 00 00 00 00 00 00 01 00 7e 
00 25 4a 00 68 52 5f 00 00 00 00 00 00 01 00 7e 
00 25 49 00 68 52 5f 00 00 00 00 00 00 01 00 7e 
00 25 2d 00 68 52 5f 00 00 00 00 00 00 01 00 7e 
00 25 9e 00 68 52 5f 00 00 00 00 00 00 01 00 7e 
00 24 ff 00 68 52 5f 00 00 00 00 00 00 01 00 7e 
00 25 30 00 68 52 5f 00 00 00 00 00 00 01 00 7e 
00 25 39 00 68 52 5f 00 00 00 00 00 00 01 00 7e 
00 25 94 00 68 52 5f 00 00 00 00 00 00 01 00 7e 
00 25 84 00 68 52 5f 00 00 00 00 00 00 01 00 7e 
00 25 1f 00 68 52 5f 00 00 00 00 00 00 01 00 7e 
00 25 61 00 68 52 5f 00 00 00 00 00 00 01 00 7e 
00 25 a3 00 68 52 5f 00 00 00 00 00 00 01 00 7e 
00 24 dd 00 68 52 5f 00 00 00 00 00 00 01 00 7e 
00 25 6b 00 68 52 5f 00 00 00 00 00 00 01 00 7e 
00 25 1a 00 68 52 5f 00 00 00 00 00 00 01 00 7e 
00 25 09 00 68 52 5f 00 00 00 00 00 00 01 00 7e 
00 25 6c 00 68 52 5f 00 00 00 00 00 00 01 00 7e 
00 25 06 00 68 52 5f 00 00 00 00 00 00 01 00 7e 
00 24 ed 00 68 52 5f 00 00 00 00 00 00 01 00 7e 
00 25 6b 00 68 52 5f 00 00 00 00 00 00 01 00 7e 
00 25 22 00 68 52 5f 00 00 00 00 00 00 01 00 7e 
00 24 e6 00 68 52 5f 00 00 00 00 00 00 01 00 7e 
00 25 8a 00 68 52 5f 00 00 00 00 00 00 01 00 7e 
00 25 49 00 68 52 5f 00 00 00 00 00 00 01 00 7e 
00 25 76 00 68 52 5f 00 00 00 00 00 00 01 00 7e 
00 25 97 00 68 52 5f 00 00 00 00 00 00 01 00 7e 
00 25 ac 00 68 52 5f 00 00 00 00 00 00 01 00 7e 
00 25 56 00 68 52 5f 00 00 00 00 00 00 01 00 7e 
00 25 14 00 68 52 5f 00 00 00 00 00 00 01 00 7e 
00 25 3b 00 68 52 5f 00 00 00 00 00 00 01 00 7e 
00 25 87 00 68 52 5f 00 00 00 00 00 00 01 00 7e 
00 25 d1 00 68 52 5f 00 00 00 00 00 00 01 00 7e 
00 25 81 00 68 52 5f 00 00 00 00 00 00 01 00 7e 
00 24 d8 00 68 52 5f 00 00 00 00 00 00 01 00 7e 
00 25 71 00 68 52 5f 00 00 00 00 00 00 01 00 7e 
00 25 65 00 68 52 5f 00 00 00 00 00 00 01 00 7e 
00 25 14 00 68 52 5f 00 00 00 00 00 00 01 00 7e 
00 25 bf 00 68 52 5f 00 00 00 00 00 00 01 00 7e 
00 24 d5 00 68 52 5f 00 00 00 00 00 00 01 00 7e 
00 25 b5 00 68 52 5f 00 00 00 00 00 00 01 00 7e 
00 25 b0 00 68 52 5f 00 00 00 00 00 00 01 00 7e 
00 25 2d 00 68 52 5f 00 00 00 00 00 00 01 00 7e 
00 25 bc 00 68 52 5f 00 00 00 00 00 00 01 00 7e 
00 25 a2 00 68 52 5f 00 00 00 00 00 00 01 00 7e 
00 25 98 00 68 52 5f 00 00 00 00 00 00 01 00 7e 
00 25 42 00 68 52 5f 00 00 00 00 00 00 01 00 7e 
00 25 46 00 68 52 5f 00 00 00 00 00 00 01 00 7e 
00 25 77 00 68 52 5f 00 00 00 00 00 00 01 00 7e 
00 25 8e 00 68 52 5f 00 00 00 00 00 00 01 00 7e 
00 25 ee 00 68 52 5f 00 00 00 00 00 00 01 00 7e 
00 25 8e 00 68 52 5f 00 00 00 00 00 00 01 00 7e 
00 25 64 00 68 52 5f 00 00 00 00 00 00 01 00 7e 
00 25 93 00 68 52 5f 00 00 00 00 00 00 01 00 7e 
00 25 54 00 68 52 5f 00 00 00 00 00 00 01 00 7e 
00 25 1d 00 68 52 5f 00 00 00 00 00 00 01 00 7e 
00 25 5b 00 68 52 5f 00 00 00 00 00 00 01 00 7e 
00 25 8f 00 68 52 5f 00 00 00 00 00 00 01 00 7e 
00 25 23 00 68 52 5f 00 00 00 00 00 00 01 00 7e 
00 25 69 00 68 52 5f 00 00 00 00 00 00 01 00 7e 
00 25 08 00 68 52 5f 00 00 00 00 00 00 01 00 7e 
00 25 3e 00 68 52 5f 00 00 00 00 00 00 01 00 7e 
00 25 ce 00 68 52 5f 00 00 00 00 00 00 01 00 7e 
00 25 48 00 68 52 5f 00 00 00 00 00 00 01 00 7e 
00 25 4d 00 68 52 5f 00 00 00 00 00 00 01 00 7e 
00 25 97 00 68 52 5f 00 00 00 00 00 00 01 00 7e 
00 25 5b 00 68 52 5f 00 00 00 00 00 00 01 00 7e 
00 25 4c 00 68 52 5f 00 00 00 00 00 00 01 00 7e 
00 25 46 00 68 52 5f 00 00 00 00 00 00 01 00 7e 
00 25 70 00 68 52 5f 00 00 00 00 00 00 01 00 7e 
00 25 a6 00 68 52 5f 00 00 00 00 00 00 01 00 7e 
00 25 98 00 68 52 5f 00 00 00 00 00 00 01 00 7e 
00 25 a2 00 68 52 5f 00 00 00 00 00 00 01 00 7e 
00 25 57 00 68 52 5f 00 00 00 00 00 00 01 00 7e 
00 25 e3 00 68 52 5f 00 00 00 00 00 00 01 00 7e 
00 25 4d 00 68 52 5f 00 00 00 00 00 00 01 00 7e 
00 24 f6 00 68 52 5f 00 00 00 00 00 00 01 00 7e 
00 25 af 00 68 52 5f 00 00 00 00 00 00 01 00 7e 
00 25 b5 00 68 52 5f 00 00 00 00 00 00 01 00 7e 
00 25 8e 00 68 52 5f 00 00 00 00 00 00 01 00 7e 
00 25 38 00 68 52 5f 00 00 00 00 00 00 01 00 7e 
00 25 43 00 68 52 5f 00 00 00 00 00 00 01 00 7e 
00 25 5b 00 68 52 5f 00 00 00 00 00 00 01 00 7e 
00 25 e2 00 68 52 5f 00 00 00 00 00 00 01 00 7e 
00 25 5f 00 68 52 5f 00 00 00 00 00 00 01 00 7e 
00 25 02 00 68 52 5f 00 00 00 00 00 00 01 00 7e 
00 25 d4 00 68 52 5f 00 00 00 00 00 00 01 00 7e 
00 25 99 00 68 52 5f 00 00 00 00 00 00 01 00 7e 
00 25 8b 00 68 52 5f 00 00 00 00 00 00 01 00 7e 
00 25 48 00 68 52 5f 00 00 00 00 00 00 01 00 7e 
00 25 65 00 68 52 5f 00 00 00 00 00 00 01 00 7e 
00 25 6f 00 68 52 5f 00 00 00 00 00 00 01 00 7e 
00 25 b2 00 68 52 5f 00 00 00 00 00 00 01 00 7e 
00 25 1d 00 68 52 5f 00 00 00 00 00 00 01 00 7e 
00 25 5c 00 68 52 5f 00 00 00 00 00 00 01 00 7e 
00 25 45 00 68 52 5f 00 00 00 00 00 00 01 00 7e 
00 25 44 00 68 52 5f 00 00 00 00 00 00 01 00 7e 
00 25 86 00 68 52 5f 00 00 00 00 00 00 01 00 7e 
00 25 5f 00 68 52 5f 00 00 00 00 00 00 01 00 7e 
00 25 84 00 68 52 5f 00 00 00 00 00 00 01 00 7e 
00 25 95 00 68 52 5f 00 00 00 00 00 00 01 00 7e 
00 25 d4 00 68 52 5f 00 00 00 00 00 00 01 00 7e 
00 25 9f 00 68 52 5f 00 00 00 00 00 00 01 00 7e 
00 25 97 00 68 52 5f 00 00 00 00 00 00 01 00 7e 
00 25 3a 00 68 52 5f 00 00 00 00 00 00 01 00 7e 
00 25 3e 00 68 52 5f 00 00 00 00 00 00 01 00 7e 
00 25 b5 00 68 52 5f 00 00 00 00 00 00 01 00 7e 
00 25 b3 00 68 52 5f 00 00 00 00 00 00 01 00 7e 
00 25 b2 00 68 52 5f 00 00 00 00 00 00 01 00 7e 
00 25 a6 00 68 52 5f 00 00 00 00 00 00 01 00 7e 
00 26 0e 00 68 52 5f 00 00 00 00 00 00 01 00 7e 
00 25 a3 00 68 52 5f 00 00 00 00 00 00 01 00 7e 
00 25 8b 00 68 52 5f 00 00 00 00 00 00 01 00 7e 
00 25 81 00 68 52 5f 00 00 00 00 00 00 01 00 7e 
00 25 aa 00 68 52 5f 00 00 00 00 00 00 01 00 7e 
00 25 9e 00 68 52 5f 00 00 00 00 00 00 01 00 7e 
00 25 45 00 68 52 5f 00 00 00 00 00 00 01 00 7e 
00 24 fe 00 68 52 5f 00 00 00 00 00 00 01 00 7e 
00 25 4c 00 68 52 5f 00 00 00 00 00 00 01 00 7e 
00 25 58 00 68 52 5f 00 00 00 00 00 00 01 00 7e 
00 25 c1 00 68 52 5f 00 00 00 00 00 00 01 00 7e 
00 25 71 00 68 52 5f 00 00 00 00 00 00 01 00 7e 
00 25 46 00 68 52 5f 00 00 00 00 00 00 01 00 7e 
00 25 97 00 68 52 5f 00 00 00 00 00 00 01 00 7e 
00 25 70 00 68 52 5f 00 00 00 00 00 00 01 00 7e 
00 25 2a 00 68 52 5f 00 00 00 00 00 00 01 00 7e 
00 25 3d 00 68 52 5f 00 00 00 00 00 00 01 00 7e 
00 25 94 00 68 52 5f 00 00 00 00 00 00 01 00 7e 
00 25 3e 00 68 52 5f 00 00 00 00 00 00 01 00 7e 
00 25 29 00 68 52 5f 00 00 00 00 00 00 01 00 7e 
00 25 64 00 68 52 5f 00 00 00 00 00 00 01 00 7e 
00 24 fa 00 68 52 5f 00 00 00 00 00 00 01 00 7e 
00 25 17 00 68 52 5f 00 00 00 00 00 00 01 00 7e 
00 25 17 00 68 52 5f 00 00 00 00 00 00 01 00 7e 
00 25 73 00 68 52 5f 00 00 00 00 00 00 01 00 7e 
00 25 48 00 68 52 5f 00 00 00 00 00 00 01 00 7e 
00 25 8a 00 68 52 5f 00 00 00 00 00 00 01 00 7e 
00 25 4d 00 68 52 5f 00 00 00 00 00 00 01 00 7e 
00 25 9a 00 68 52 5f 00 00 00 00 00 00 01 00 7e 
00 25 83 00 68 52 5f 00 00 00 00 00 00 01 00 7e 
00 25 12 00 68 52 5f 00 00 00 00 00 00 01 00 7e 
00 25 95 00 68 52 5f 00 00 00 00 00 00 01 00 7e 
00 25 6c 00 68 52 5f 00 00 00 00 00 00 01 00 7e 
00 25 73 00 68 52 5f 00 00 00 00 00 00 01 00 7e 
00 24 d3 00 68 52 5f 00 00 00 00 00 00 01 00 7e 
00 25 20 00 68 52 5f 00 00 00 00 00 00 01 00 7e 
00 25 7d 00 68 52 5f 00 00 00 00 00 00 01 00 7e 
00 25 3e 00 68 52 5f 00 00 00 00 00 00 01 00 7e 
00 25 7d 00 68 52 5f 00 00 00 00 00 00 01 00 7e 
00 25 a6 00 68 52 5f 00 00 00 00 00 00 01 00 7e 
00 25 6a 00 68 52 5f 00 00 00 00 00 00 01 00 7e 
00 25 a8 00 68 52 5f 00 00 00 00 00 00 01 00 7e 
00 25 e2 00 68 52 5f 00 00 00 00 00 00 01 00 7e 
00 25 7a 00 68 52 5f 00 00 00 00 00 00 01 00 7e 
00 25 28 00 68 52 5f 00 00 00 00 00 00 01 00 7e 
00 25 62 00 68 52 5f 00 00 00 00 00 00 01 00 7e 
00 24 e5 00 68 52 5f 00 00 00 00 00 00 01 00 7e 
00 25 92 00 68 52 5f 00 00 00 00 00 00 01 00 7e 
00 25 22 00 68 52 5f 00 00 00 00 00 00 01 00 7e 
00 25 6b 00 68 52 5f 00 00 00 00 00 00 01 00 7e 
00 25 43 00 68 52 5f 00 00 00 00 00 00 01 00 7e 
00 25 65 00 68 52 5f 00 00 00 00 00 00 01 00 7e 
00 25 08 00 68 52 5f 00 00 00 00 00 00 01 00 7e 
00 25 94 00 68 52 5f 00 00 00 00 00 00 01 00 7e 
00 25 6b 00 68 52 5f 00 00 00 00 00 00 01 00 7e 
00 25 c3 00 68 52 5f 00 00 00 00 00 00 01 00 7e 
00 25 27 00 68 52 5f 00 00 00 00 00 00 01 00 7e 
00 24 a1 00 68 52 5f 00 00 00 00 00 00 01 00 7e 
00 25 87 00 68 52 5f 00 00 00 00 00 00 01 00 7e 
00 25 aa 00 68 52 5f 00 00 00 00 00 00 01 00 7e 
00 25 6f 00 68 52 5f 00 00 00 00 00 00 01 00 7e 
00 25 a3 00 68 52 5f 00 00 00 00 00 00 01 00 7e 
00 25 4b 00 68 52 5f 00 00 00 00 00 00 01 00 7e 
00 25 02 00 68 52 5f 00 00 00 00 00 00 01 00 7e 
00 25 1d 00 68 52 5f 00 00 00 00 00 00 01 00 7e 
00 25 66 00 68 52 5f 00 00 00 00 00 00 01 00 7e 
00 24 ee 00 68 52 5f 00 00 00 00 00 00 01 00 7e 
00 25 7d 00 68 52 5f 00 00 00 00 00 00 01 00 7e 
00 25 d2 00 68 52 5f 00 00 00 00 00 00 01 00 7e 
00 25 24 00 68 52 5f 00 00 00 00 00 00 01 00 7e 
00 25 07 00 68 52 5f 00 00 00 00 00 00 01 00 7e 
00 25 26 00 68 52 5f 00 00 00 00 00 00 01 00 7e 
00 25 13 00 68 52 5f 00 00 00 00 00 00 01 00 7e 
00 25 14 00 68 52 5f 00 00 00 00 00 00 01 00 7e 
00 25 37 00 68 52 5f 00 00 00 00 00 00 01 00 7e 
00 25 61 00 68 52 5f 00 00 00 00 00 00 01 00 7e 
00 25 57 00 68 52 5f 00 00 00 00 00 00 01 00 7e 
00 24 f0 00 68 52 5f 00 00 00 00 00 00 01 00 7e 
00 25 20 00 68 52 5f 00 00 00 00 00 00 01 00 7e 
00 25 49 00 68 52 5f 00 00 00 00 00 00 01 00 7e 
00 25 38 00 68 52 5f 00 00 00 00 00 00 01 00 7e 
00 25 91 00 68 52 5f 00 00 00 00 00 00 01 00 7e 
00 25 43 00 68 52 5f 00 00 00 00 00 00 01 00 7e 
00 25 38 00 68 52 5f 00 00 00 00 00 00 01 00 7e 
00 25 93 00 68 52 5f 00 00 00 00 00 00 01 00 7e 
00 25 26 00 68 52 5f 00 00 00 00 00 00 01 00 7e 
00 25 65 00 68 52 5f 00 00 00 00 00 00 01 00 7e 
00 25 70 00 68 52 5f 00 00 00 00 00 00 01 00 7e 
00 24 ea 00 68 52 5f 00 00 00 00 00 00 01 00 7e 
00 24 ca 00 68 52 5f 00 00 00 00 00 00 01 00 7e 
00 25 66 00 68 52 5f 00 00 00 00 00 00 01 00 7e 
00 25 86 00 68 52 5f 00 00 00 00 00 00 01 00 7e 
00 25 1f 00 68 52 5f 00 00 00 00 00 00 01 00 7e 
00 25 89 00 68 52 5f 00 00 00 00 00 00 01 00 7e 
00 25 56 00 68 52 5f 00 00 00 00 00 00 01 00 7e 
00 25 05 00 68 52 5f 00 00 00 00 00 00 01 00 7e 
00 25 90 00 68 52 5f 00 00 00 00 00 00 01 00 7e 
00 25 01 00 68 52 5f 00 00 00 00 00 00 01 00 7e 
00 25 37 00 68 52 5f 00 00 00 00 00 00 01 00 7e 
00 25 24 00 68 52 5f 00 00 00 00 00 00 01 00 7e 
00 25 77 00 68 52 5f 00 00 00 00 00 00 01 00 7e 
00 25 2e 00 68 52 5f 00 00 00 00 00 00 01 00 7e 
00 25 18 00 68 52 5f 00 00 00 00 00 00 01 00 7e 
00 25 a0 00 68 52 5f 00 00 00 00 00 00 01 00 7e 
00 25 19 00 68 52 5f 00 00 00 00 00 00 01 00 7e 
00 25 4d 00 68 52 5f 00 00 00 00 00 00 01 00 7e 
00 25 76 00 68 52 5f 00 00 00 00 00 00 01 00 7e 
00 25 4f 00 68 52 5f 00 00 00 00 00 00 01 00 7e 
00 25 5f 00 68 52 5f 00 00 00 00 00 00 01 00 7e 
00 25 81 00 68 52 5f 00 00 00 00 00 00 01 00 7e 
00 25 72 00 68 52 5f 00 00 00 00 00 00 01 00 7e 
00 25 88 00 68 52 5f 00 00 00 00 00 00 01 00 7e 
00 25 42 00 68 52 5f 00 00 00 00 00 00 01 00 7e 
00 25 45 00 68 52 5f 00 00 00 00 00 00 01 00 7e 
00 24 c0 00 68 52 5f 00 00 00 00 00 00 01 00 7e 
00 25 0a 00 68 52 5f 00 00 00 00 00 00 01 00 7e 
00 25 1c 00 68 52 5f 00 00 00 00 00 00 01 00 7e 
00 25 89 00 68 52 5f 00 00 00 00 00 00 01 00 7e 
00 25 8e 00 68 52 5f 00 00 00 00 00 00 01 00 7e 
00 25 9c 00 68 52 5f 00 00 00 00 00 00 01 00 7e 
00 24 fd 00 68 52 5f 00 00 00 00 00 00 01 00 7e 
00 25 80 00 68 52 5f 00 00 00 00 00 00 01 00 7e 
00 25 34 00 68 52 5f 00 00 00 00 00 00 01 00 7e 
00 25 70 00 68 52 5f 00 00 00 00 00 00 01 00 7e 
00 25 78 00 68 52 5f 00 00 00 00 00 00 01 00 7e 
00 25 8d 00 68 52 5f 00 00 00 00 00 00 01 00 7e 
00 25 11 00 68 52 5f 00 00 00 00 00 00 01 00 7e 
00 25 3a 00 68 52 5f 00 00 00 00 00 00 01 00 7e 
00 25 7d 00 68 52 5f 00 00 00 00 00 00 01 00 7e 
00 25 13 00 68 52 5f 00 00 00 00 00 00 01 00 7e 
00 25 4e 00 68 52 5f 00 00 00 00 00 00 01 00 7e 
00 25 78 00 68 52 5f 00 00 00 00 00 00 01 00 7e 
00 25 02 00 68 52 5f 00 00 00 00 00 00 01 00 7e 
00 25 90 00 68 52 5f 00 00 00 00 00 00 01 00 7e 
00 25 4e 00 68 52 5f 00 00 00 00 00 00 01 00 7e 
00 24 bc 00 68 52 5f 00 00 00 00 00 00 01 00 7e 
00 24 f6 00 68 52 5f 00 00 00 00 00 00 01 00 7e 
00 25 8e 00 68 52 5f 00 00 00 00 00 00 01 00 7e 
00 25 33 00 68 52 5f 00 00 00 00 00 00 01 00 7e 
00 24 c5 00 68 52 5f 00 00 00 00 00 00 01 00 7e 
00 25 58 00 68 52 5f 00 00 00 00 00 00 01 00 7e 
00 25 cd 00 68 52 5f 00 00 00 00 00 00 01 00 7e 
00 25 76 00 68 52 5f 00 00 00 00 00 00 01 00 7e 
00 24 f8 00 68 52 5f 00 00 00 00 00 00 01 00 7e 
00 24 d2 00 68 52 5f 00 00 00 00 00 00 01 00 7e 
00 24 b7 00 68 52 5f 00 00 00 00 00 00 01 00 7e 
00 25 07 00 68 52 5f 00 00 00 00 00 00 01 00 7e 
00 25 21 00 68 52 5f 00 00 00 00 00 00 01 00 7e 
00 25 24 00 68 52 5f 00 00 00 00 00 00 01 00 7e 
00 25 1b 00 68 52 5f 00 00 00 00 00 00 01 00 7e 
00 25 8f 00 68 52 5f 00 00 00 00 00 00 01 00 7e 
00 25 2e 00 68 52 5f 00 00 00 00 00 00 01 00 7e 
00 25 41 00 68 52 5f 00 00 00 00 00 00 01 00 7e 
00 25 05 00 68 52 5f 00 00 00 00 00 00 01 00 7e 
00 25 18 00 68 52 5f 00 00 00 00 00 00 01 00 7e 
00 25 80 00 68 52 5f 00 00 00 00 00 00 01 00 7e 
00 25 09 00 68 52 5f 00 00 00 00 00 00 01 00 7e 
00 25 58 00 68 52 5f 00 00 00 00 00 00 01 00 7e 
00 25 5a 00 68 52 5f 00 00 00 00 00 00 01 00 7e 
00 25 54 00 68 52 5f 00 00 00 00 00 00 01 00 7e 
00 25 17 00 68 52 5f 00 00 00 00 00 00 01 00 7e 
00 25 22 00 68 52 5f 00 00 00 00 00 00 01 00 7e 
00 25 59 00 68 52 5f 00 00 00 00 00 00 01 00 7e 
00 25 2d 00 68 52 5f 00 00 00 00 00 00 01 00 7e 
00 24 ff 00 68 52 5f 00 00 00 00 00 00 01 00 7e 
00 24 ee 00 68 52 5f 00 00 00 00 00 00 01 00 7e 
00 25 07 00 68 52 5f 00 00 00 00 00 00 01 00 7e 
00 24 9e 00 68 52 5f 00 00 00 00 00 00 01 00 7e 
00 25 49 00 68 52 5f 00 00 00 00 00 00 01 00 7e 
00 25 5b 00 68 52 5f 00 00 00 00 00 00 01 00 7e 
00 25 db 00 68 52 5f 00 00 00 00 00 00 01 00 7e 
00 24 fa 00 68 52 5f 00 00 00 00 00 00 01 00 7e 
00 25 15 00 68 52 5f 00 00 00 00 00 00 01 00 7e 
00 25 00 00 68 52 5f 00 00 00 00 00 00 01 00 7e 
00 25 59 00 68 52 5f 00 00 00 00 00 00 01 00 7e 
00 24 f6 00 68 52 5f 00 00 00 00 00 00 01 00 7e 
00 25 43 00 68 52 5f 00 00 00 00 00 00 01 00 7e 
00 25 70 00 68 52 5f 00 00 00 00 00 00 01 00 7e 
00 25 69 00 68 52 5f 00 00 00 00 00 00 01 00 7e 
00 25 20 00 68 52 5f 00 00 00 00 00 00 01 00 7e 
00 25 62 00 68 52 5f 00 00 00 00 00 00 01 00 7e 
00 25 22 00 68 52 5f 00 00 00 00 00 00 01 00 7e 
00 25 44 00 68 52 5f 00 00 00 00 00 00 01 00 7e 
00 24 f6 00 68 52 5f 00 00 00 00 00 00 01 00 7e 
00 25 07 00 68 52 5f 00 00 00 00 00 00 01 00 7e 
00 25 78 00 68 52 5f 00 00 00 00 00 00 01 00 7e 
00 25 57 00 68 52 5f 00 00 00 00 00 00 01 00 7e 
00 25 38 00 68 52 5f 00 00 00 00 00 00 01 00 7e 
00 25 72 00 68 52 5f 00 00 00 00 00 00 01 00 7e 
00 25 b0 00 68 52 5f 00 00 00 00 00 00 01 00 7e 
00 25 23 00 68 52 5f 00 00 00 00 00 00 01 00 7e 
00 25 8b 00 68 52 5f 00 00 00 00 00 00 01 00 7e 
00 25 35 00 68 52 5f 00 00 00 00 00 00 01 00 7e 
00 25 6f 00 68 52 5f 00 00 00 00 00 00 01 00 7e 
00 25 42 00 68 52 5f 00 00 00 00 00 00 01 00 7e 
00 25 75 00 68 52 5f 00 00 00 00 00 00 01 00 7e 
00 25 5a 00 68 52 5f 00 00 00 00 00 00 01 00 7e 
00 25 43 00 68 52 5f 00 00 00 00 00 00 01 00 7e 
00 25 a1 00 68 52 5f 00 00 00 00 00 00 01 00 7e 
00 25 71 00 68 52 5f 00 00 00 00 00 00 01 00 7e 
00 25 65 00 68 52 5f 00 00 00 00 00 00 01 00 7e 
00 25 7b 00 68 52 5f 00 00 00 00 00 00 01 00 7e 
00 25 38 00 68 52 5f 00 00 00 00 00 00 01 00 7e 
00 25 9c 00 68 52 5f 00 00 00 00 00 00 01 00 7e 
00 25 a8 00 68 52 5f 00 00 00 00 00 00 01 00 7e 
00 24 b7 00 68 52 5f 00 00 00 00 00 00 01 00 7e 
00 25 48 00 68 52 5f 00 00 00 00 00 00 01 00 7e 
00 25 59 00 68 52 5f 00 00 00 00 00 00 01 00 7e 
00 25 12 00 68 52 5f 00 00 00 00 00 00 01 00 7e 
00 25 00 00 68 52 5f 00 00 00 00 00 00 01 00 7e 
00 24 e8 00 68 52 5f 00 00 00 00 00 00 01 00 7e 
00 25 8c 00 68 52 5f 00 00 00 00 00 00 01 00 7e 
00 25 75 00 68 52 5f 00 00 00 00 00 00 01 00 7e 
00 24 fd 00 68 52 5f 00 00 00 00 00 00 01 00 7e 
00 24 d0 00 68 52 5f 00 00 00 00 00 00 01 00 7e 
00 25 97 00 68 52 5f 00 00 00 00 00 00 01 00 7e 
00 25 6c 00 68 52 5f 00 00 00 00 00 00 01 00 7e 
00 25 93 00 68 52 5f 00 00 00 00 00 00 01 00 7e 
00 25 ac 00 68 52 5f 00 00 00 00 00 00 01 00 7e 
00 25 81 00 68 52 5f 00 00 00 00 00 00 01 00 7e 
00 25 11 00 68 52 5f 00 00 00 00 00 00 01 00 7e 
00 25 58 00 68 52 5f 00 00 00 00 00 00 01 00 7e 
00 25 6d 00 68 52 5f 00 00 00 00 00 00 01 00 7e 
00 25 78 00 68 52 5f 00 00 00 00 00 00 01 00 7e 
00 25 25 00 68 52 5f 00 00 00 00 00 00 01 00 7e 
00 25 32 00 68 52 5f 00 00 00 00 00 00 01 00 7e 
00 25 7f 00 68 52 5f 00 00 00 00 00 00 01 00 7e 
00 25 8d 00 68 52 5f 00 00 00 00 00 00 01 00 7e 
00 25 7e 00 68 52 5f 00 00 00 00 00 00 01 00 7e 
00 25 75 00 68 52 5f 00 00 00 00 00 00 01 00 7e 
00 25 4e 00 68 52 5f 00 00 00 00 00 00 01 00 7e 
00 25 45 00 68 52 5f 00 00 00 00 00 00 01 00 7e 
00 25 8e 00 68 52 5f 00 00 00 00 00 00 01 00 7e 
00 25 8e 00 68 52 5f 00 00 00 00 00 00 01 00 7e 
00 25 15 00 68 52 5f 00 00 00 00 00 00 01 00 7e 
00 25 a4 00 68 52 5f 00 00 00 00 00 00 01 00 7e 
00 25 b0 00 68 52 5f 00 00 00 00 00 00 01 00 7e 
00 25 af 00 68 52 5f 00 00 00 00 00 00 01 00 7e 
00 25 cd 00 68 52 5f 00 00 00 00 00 00 01 00 7e 
00 25 d0 00 68 52 5f 00 00 00 00 00 00 01 00 7e 
00 25 cc 00 68 52 5f 00 00 00 00 00 00 01 00 7e 
00 25 4f 00 68 52 5f 00 00 00 00 00 00 01 00 7e 
00 25 65 00 68 52 5f 00 00 00 00 00 00 01 00 7e 
00 25 7a 00 68 52 5f 00 00 00 00 00 00 01 00 7e 
00 25 62 00 68 52 5f 00 00 00 00 00 00 01 00 7e 
00 25 48 00 68 52 5f 00 00 00 00 00 00 01 00 7e 
00 24 a2 00 68 52 5f 00 00 00 00 00 00 01 00 7e 
00 25 4b 00 68 52 5f 00 00 00 00 00 00 01 00 7e 
00 25 54 00 68 52 5f 00 00 00 00 00 00 01 00 7e 
00 25 69 00 68 52 5f 00 00 00 00 00 00 01 00 7e 
00 25 e0 00 68 52 5f 00 00 00 00 00 00 01 00 7e 
00 25 66 00 68 52 5f 00 00 00 00 00 00 01 00 7e 
00 26 30 00 68 52 5f 00 00 00 00 00 00 01 00 7e 
00 25 99 00 68 52 5f 00 00 00 00 00 00 01 00 7e 
00 25 68 00 68 52 5f 00 00 00 00 00 00 01 00 7e 
00 25 a1 00 68 52 5f 00 00 00 00 00 00 01 00 7e 
00 25 73 00 68 52 5f 00 00 00 00 00 00 01 00 7e 
00 25 62 00 68 52 5f 00 00 00 00 00 00 01 00 7e 
00 25 6b 00 68 52 5f 00 00 00 00 00 00 01 00 7e 
00 25 25 00 68 52 5f 00 00 00 00 00 00 01 00 7e 
00 25 33 00 68 52 5f 00 00 00 00 00 00 01 00 7e 
00 25 7d 00 68 52 5f 00 00 00 00 00 00 01 00 7e 
00 25 78 00 68 52 5f 00 00 00 00 00 00 01 00 7e 
00 25 9c 00 68 52 5f 00 00 00 00 00 00 01 00 7e 
00 25 89 00 68 52 5f 00 00 00 00 00 00 01 00 7e 
00 25 b0 00 68 52 5f 00 00 00 00 00 00 01 00 7e 
00 25 90 00 68 52 5f 00 00 00 00 00 00 01 00 7e 
00 25 6e 00 68 52 5f 00 00 00 00 00 00 01 00 7e 
00 25 7f 00 68 52 5f 00 00 00 00 00 00 01 00 7e 
00 25 7d 00 68 52 5f 00 00 00 00 00 00 01 00 7e 
00 25 64 00 68 52 5f 00 00 00 00 00 00 01 00 7e 
00 25 5f 00 68 52 5f 00 00 00 00 00 00 01 00 7e 
00 25 87 00 68 52 5f 00 00 00 00 00 00 01 00 7e 
00 25 6b 00 68 52 5f 00 00 00 00 00 00 01 00 7e 
00 25 81 00 68 52 5f 00 00 00 00 00 00 01 00 7e 
00 25 67 00 68 52 5f 00 00 00 00 00 00 01 00 7e 
00 25 84 00 68 52 5f 00 00 00 00 00 00 01 00 7e 
00 25 7a 00 68 52 5f 00 00 00 00 00 00 01 00 7e 
00 24 fa 00 68 52 5f 00 00 00 00 00 00 01 00 7e 
00 25 13 00 68 52 5f 00 00 00 00 00 00 01 00 7e 
00 25 82 00 68 52 5f 00 00 00 00 00 00 01 00 7e 
00 25 e1 00 68 52 5f 00 00 00 00 00 00 01 00 7e 
00 25 8e 00 68 52 5f 00 00 00 00 00 00 01 00 7e 
00 24 ee 00 68 52 5f 00 00 00 00 00 00 01 00 7e 
00 25 1d 00 68 52 5f 00 00 00 00 00 00 01 00 7e 
00 25 55 00 68 52 5f 00 00 00 00 00 00 01 00 7e 
00 24 e2 00 68 52 5f 00 00 00 00 00 00 01 00 7e 
00 25 58 00 68 52 5f 00 00 00 00 00 00 01 00 7e 
00 25 ad 00 68 52 5f 00 00 00 00 00 00 01 00 7e 
00 25 33 00 68 52 5f 00 00 00 00 00 00 01 00 7e 
00 25 50 00 68 52 5f 00 00 00 00 00 00 01 00 7e 
00 25 24 00 68 52 5f 00 00 00 00 00 00 01 00 7e 
00 24 ed 00 68 52 5f 00 00 00 00 00 00 01 00 7e 
00 25 bf 00 68 52 5f 00 00 00 00 00 00 01 00 7e 
00 25 67 00 68 52 5f 00 00 00 00 00 00 01 00 7e 
00 25 95 00 68 52 5f 00 00 00 00 00 00 01 00 7e 
00 25 b1 00 68 52 5f 00 00 00 00 00 00 01 00 7e 
00 25 a9 00 68 52 5f 00 00 00 00 00 00 01 00 7e 
00 24 fa 00 68 52 5f 00 00 00 00 00 00 01 00 7e 
00 25 95 00 68 52 5f 00 00 00 00 00 00 01 00 7e 
00 25 a6 00 68 52 5f 00 00 00 00 00 00 01 00 7e 
00 25 86 00 68 52 5f 00 00 00 00 00 00 01 00 7e 
00 25 c1 00 68 52 5f 00 00 00 00 00 00 01 00 7e 
00 25 a3 00 68 52 5f 00 00 00 00 00 00 01 00 7e 
00 25 a4 00 68 52 5f 00 00 00 00 00 00 01 00 7e 
00 25 08 00 68 52 5f 00 00 00 00 00 00 01 00 7e 
00 25 b0 00 68 52 5f 00 00 00 00 00 00 01 00 7e 
00 25 55 00 68 52 5f 00 00 00 00 00 00 01 00 7e 
00 25 3b 00 68 52 5f 00 00 00 00 00 00 01 00 7e 
00 25 99 00 68 52 5f 00 00 00 00 00 00 01 00 7e 
00 25 6d 00 68 52 5f 00 00 00 00 00 00 01 00 7e 
00 25 a2 00 68 52 5f 00 00 00 00 00 00 01 00 7e 
00 25 9e 00 68 52 5f 00 00 00 00 00 00 01 00 7e 
00 25 b0 00 68 52 5f 00 00 00 00 00 00 01 00 7e 
00 25 a5 00 68 52 5f 00 00 00 00 00 00 01 00 7e 
00 25 5c 00 68 52 5f 00 00 00 00 00 00 01 00 7e 
00 25 31 00 68 52 5f 00 00 00 00 00 00 01 00 7e 
00 25 68 00 68 52 5f 00 00 00 00 00 00 01 00 7e 
00 25 3b 00 68 52 5f 00 00 00 00 00 00 01 00 7e 
00 25 99 00 68 52 5f 00 00 00 00 00 00 01 00 7e 
00 25 47 00 68 52 5f 00 00 00 00 00 00 01 00 7e 
00 25 bc 00 68 52 5f 00 00 00 00 00 00 01 00 7e 
00 25 fe 00 68 52 5f 00 00 00 00 00 00 01 00 7e 
00 25 9d 00 68 52 5f 00 00 00 00 00 00 01 00 7e 
00 25 64 00 68 52 5f 00 00 00 00 00 00 01 00 7e 
00 25 75 00 68 52 5f 00 00 00 00 00 00 01 00 7e 
00 25 92 00 68 52 5f 00 00 00 00 00 00 01 00 7e 
00 25 76 00 68 52 5f 00 00 00 00 00 00 01 00 7e 
00 25 24 00 68 52 5f 00 00 00 00 00 00 01 00 7e 
00 25 0e 00 68 52 5f 00 00 00 00 00 00 01 00 7e 
00 25 38 00 68 52 5f 00 00 00 00 00 00 01 00 7e 
00 25 39 00 68 52 5f 00 00 00 00 00 00 01 00 7e 
00 25 12 00 68 52 5f 00 00 00 00 00 00 01 00 7e 
00 25 6f 00 68 52 5f 00 00 00 00 00 00 01 00 7e 
00 25 1a 00 68 52 5f 00 00 00 00 00 00 01 00 7e 
00 25 35 00 68 52 5f 00 00 00 00 00 00 01 00 7e 
00 25 4d 00 68 52 5f 00 00 00 00 00 00 01 00 7e 
00 25 5a 00 68 52 5f 00 00 00 00 00 00 01 00 7e 
00 24 f9 00 68 52 5f 00 00 00 00 00 00 01 00 7e 
00 25 a4 00 68 52 5f 00 00 00 00 00 00 01 00 7e 
00 25 81 00 68 52 5f 00 00 00 00 00 00 01 00 7e 
00 25 77 00 68 52 5f 00 00 00 00 00 00 01 00 7e 
00 25 68 00 68 52 5f 00 00 00 00 00 00 01 00 7e 
00 25 49 00 68 52 5f 00 00 00 00 00 00 01 00 7e 
00 25 a5 00 68 52 5f 00 00 00 00 00 00 01 00 7e 
00 25 90 00 68 52 5f 00 00 00 00 00 00 01 00 7e 
00 25 c2 00 68 52 5f 00 00 00 00 00 00 01 00 7e 
00 25 ac 00 68 52 5f 00 00 00 00 00 00 01 00 7e 
00 26 07 00 68 52 5f 00 00 00 00 00 00 01 00 7e 
00 25 80 00 68 52 5f 00 00 00 00 00 00 01 00 7e 
00 25 6a 00 68 52 5f 00 00 00 00 00 00 01 00 7e 
00 25 ac 00 68 52 5f 00 00 00 00 00 00 01 00 7e 
00 25 8b 00 68 52 5f 00 00 00 00 00 00 01 00 7e 
00 25 75 00 68 52 5f 00 00 00 00 00 00 01 00 7e 
00 25 3e 00 68 52 5f 00 00 00 00 00 00 01 00 7e 
00 25 35 00 68 52 5f 00 00 00 00 00 00 01 00 7e 
00 25 87 00 68 52 5f 00 00 00 00 00 00 01 00 7e 
00 25 9f 00 68 52 5f 00 00 00 00 00 00 01 00 7e 
00 25 c0 00 68 52 5f 00 00 00 00 00 00 01 00 7e 
00 25 71 00 68 52 5f 00 00 00 00 00 00 01 00 7e 
00 25 76 00 68 52 5f 00 00 00 00 00 00 01 00 7e 
00 25 24 00 68 52 5f 00 00 00 00 00 00 01 00 7e 
00 26 0a 00 68 52 5f 00 00 00 00 00 00 01 00 7e 
00 25 b6 00 68 52 5f 00 00 00 00 00 00 01 00 7e 
00 25 3b 00 68 52 5f 00 00 00 00 00 00 01 00 7e 
00 25 41 00 68 52 5f 00 00 00 00 00 00 01 00 7e 
00 25 79 00 68 52 5f 00 00 00 00 00 00 01 00 7e 
00 25 78 00 68 52 5f 00 00 00 00 00 00 01 00 7e 
00 24 c4 00 68 52 5f 00 00 00 00 00 00 01 00 7e 
00 25 57 00 68 52 5f 00 00 00 00 00 00 01 00 7e 
00 25 a1 00 68 52 5f 00 00 00 00 00 00 01 00 7e 
00 25 57 00 68 52 5f 00 00 00 00 00 00 01 00 7e 
00 25 ca 00 68 52 5f 00 00 00 00 00 00 01 00 7e 
00 25 65 00 68 52 5f 00 00 00 00 00 00 01 00 7e 
00 25 8d 00 68 52 5f 00 00 00 00 00 00 01 00 7e 
00 25 ae 00 68 52 5f 00 00 00 00 00 00 01 00 7e 
00 25 47 00 68 52 5f 00 00 00 00 00 00 01 00 7e 
00 25 a2 00 68 52 5f 00 00 00 00 00 00 01 00 7e 
00 25 73 00 68 52 5f 00 00 00 00 00 00 01 00 7e 
00 25 68 00 68 52 5f 00 00 00 00 00 00 01 00 7e 
00 25 a1 00 68 52 5f 00 00 00 00 00 00 01 00 7e 
00 25 84 00 68 52 5f 00 00 00 00 00 00 01 00 7e 
00 25 6a 00 68 52 5f 00 00 00 00 00 00 01 00 7e 
00 25 58 00 68 52 5f 00 00 00 00 00 00 01 00 7e 
00 25 50 00 68 52 5f 00 00 00 00 00 00 01 00 7e 
00 25 42 00 68 52 5f 00 00 00 00 00 00 01 00 7e 
00 25 5f 00 68 52 5f 00 00 00 00 00 00 01 00 7e 
00 25 df 00 68 52 5f 00 00 00 00 00 00 01 00 7e 
00 25 b1 00 68 52 5f 00 00 00 00 00 00 01 00 7e 
00 25 48 00 68 52 5f 00 00 00 00 00 00 01 00 7e 
00 25 7e 00 68 52 5f 00 00 00 00 00 00 01 00 7e 
00 25 a0 00 68 52 5f 00 00 00 00 00 00 01 00 7e 
00 25 c0 00 68 52 5f 00 00 00 00 00 00 01 00 7e 
00 25 9f 00 68 52 5f 00 00 00 00 00 00 01 00 7e 
00 25 65 00 68 52 5f 00 00 00 00 00 00 01 00 7e 
00 25 44 00 68 52 5f 00 00 00 00 00 00 01 00 7e 
00 25 e5 00 68 52 5f 00 00 00 00 00 00 01 00 7e 
00 25 6a 00 68 52 5f 00 00 00 00 00 00 01 00 7e 
00 25 c2 00 68 52 5f 00 00 00 00 00 00 01 00 7e 
00 25 6b 00 68 52 5f 00 00 00 00 00 00 01 00 7e 
00 25 b9 00 68 52 5f 00 00 00 00 00 00 01 00 7e 
00 25 b0 00 68 52 5f 00 00 00 00 00 00 01 00 7e 
00 25 b3 00 68 52 5f 00 00 00 00 00 00 01 00 7e 
00 25 c3 00 68 52 5f 00 00 00 00 00 00 01 00 7e 
00 25 65 00 68 52 5f 00 00 00 00 00 00 01 00 7e 
00 25 55 00 68 52 5f 00 00 00 00 00 00 01 00 7e 
00 25 5f 00 68 52 5f 00 00 00 00 00 00 01 00 7e 
00 25 53 00 68 52 5f 00 00 00 00 00 00 01 00 7e 
00 25 42 00 68 52 5f 00 00 00 00 00 00 01 00 7e 
00 25 d1 00 68 52 5f 00 00 00 00 00 00 01 00 7e 
00 25 79 00 68 52 5f 00 00 00 00 00 00 01 00 7e 
00 25 a3 00 68 52 5f 00 00 00 00 00 00 01 00 7e 
00 25 22 00 68 52 5f 00 00 00 00 00 00 01 00 7e 
00 25 b1 00 68 52 5f 00 00 00 00 00 00 01 00 7e 
00 25 65 00 68 52 5f 00 00 00 00 00 00 01 00 7e 
00 25 53 00 68 52 5f 00 00 00 00 00 00 01 00 7e 
00 25 20 00 68 52 5f 00 00 00 00 00 00 01 00 7e 
00 25 83 00 68 52 5f 00 00 00 00 00 00 01 00 7e 
00 25 68 00 68 52 5f 00 00 00 00 00 00 01 00 7e 
00 25 f8 00 68 52 5f 00 00 00 00 00 00 01 00 7e 
00 25 92 00 68 52 5f 00 00 00 00 00 00 01 00 7e 
00 25 58 00 68 52 5f 00 00 00 00 00 00 01 00 7e 
00 25 48 00 68 52 5f 00 00 00 00 00 00 01 00 7e 
00 25 b5 00 68 52 5f 00 00 00 00 00 00 01 00 7e 
00 25 c0 00 68 52 5f 00 00 00 00 00 00 01 00 7e 
00 25 4f 00 68 52 5f 00 00 00 00 00 00 01 00 7e 
00 25 ed 00 68 52 5f 00 00 00 00 00 00 01 00 7e 
00 26 03 00 68 52 5f 00 00 00 00 00 00 01 00 7e 
00 25 3e 00 68 52 5f 00 00 00 00 00 00 01 00 7e 
00 25 4d 00 68 52 5f 00 00 00 00 00 00 01 00 7e 
00 25 ad 00 68 52 5f 00 00 00 00 00 00 01 00 7e 
00 25 6b 00 68 52 5f 00 00 00 00 00 00 01 00 7e 
00 25 42 00 68 52 5f 00 00 00 00 00 00 01 00 7e 
00 25 8a 00 68 52 5f 00 00 00 00 00 00 01 00 7e 
00 25 82 00 68 52 5f 00 00 00 00 00 00 01 00 7e 
00 25 a6 00 68 52 5f 00 00 00 00 00 00 01 00 7e 
00 25 68 00 68 52 5f 00 00 00 00 00 00 01 00 7e 
00 25 e3 00 68 52 5f 00 00 00 00 00 00 01 00 7e 
00 25 ac 00 68 52 5f 00 00 00 00 00 00 01 00 7e 
00 25 a1 00 68 52 5f 00 00 00 00 00 00 01 00 7e 
00 25 71 00 68 52 5f 00 00 00 00 00 00 01 00 7e 
00 25 73 00 68 52 5f 00 00 00 00 00 00 01 00 7e 
00 25 68 00 68 52 5f 00 00 00 00 00 00 01 00 7e 
00 25 c1 00 68 52 5f 00 00 00 00 00 00 01 00 7e 
00 25 46 00 68 52 5f 00 00 00 00 00 00 01 00 7e 
00 25 a8 00 68 52 5f 00 00 00 00 00 00 01 00 7e 
00 25 5b 00 68 52 5f 00 00 00 00 00 00 01 00 7e 
00 25 b1 00 68 52 5f 00 00 00 00 00 00 01 00 7e 
00 25 29 00 68 52 5f 00 00 00 00 00 00 01 00 7e 
00 25 18 00 68 52 5f 00 00 00 00 00 00 01 00 7e 
00 25 80 00 68 52 5f 00 00 00 00 00 00 01 00 7e 
00 25 7a 00 68 52 5f 00 00 00 00 00 00 01 00 7e 
00 25 ca 00 68 52 5f 00 00 00 00 00 00 01 00 7e 
00 25 c5 00 68 52 5f 00 00 00 00 00 00 01 00 7e 
00 25 ae 00 68 52 5f 00 00 00 00 00 00 01 00 7e 
00 25 a4 00 68 52 5f 00 00 00 00 00 00 01 00 7e 
00 25 79 00 68 52 5f 00 00 00 00 00 00 01 00 7e 
00 25 67 00 68 52 5f 00 00 00 00 00 00 01 00 7e 
00 25 34 00 68 52 5f 00 00 00 00 00 00 01 00 7e 
00 25 e6 00 68 52 5f 00 00 00 00 00 00 01 00 7e 
00 25 9e 00 68 52 5f 00 00 00 00 00 00 01 00 7e 
00 25 87 00 68 52 5f 00 00 00 00 00 00 01 00 7e 
00 25 cd 00 68 52 5f 00 00 00 00 00 00 01 00 7e 
00 25 8f 00 68 52 5f 00 00 00 00 00 00 01 00 7e 
00 25 3b 00 68 52 5f 00 00 00 00 00 00 01 00 7e 
00 25 2b 00 68 52 5f 00 00 00 00 00 00 01 00 7e 
00 25 93 00 68 52 5f 00 00 00 00 00 00 01 00 7e 
00 25 a8 00 68 52 5f 00 00 00 00 00 00 01 00 7e 
00 25 c6 00 68 52 5f 00 00 00 00 00 00 01 00 7e 
00 25 81 00 68 52 5f 00 00 00 00 00 00 01 00 7e 
00 25 ca 00 68 52 5f 00 00 00 00 00 00 01 00 7e 
00 25 e3 00 68 52 5f 00 00 00 00 00 00 01 00 7e 
00 25 77 00 68 52 5f 00 00 00 00 00 00 01 00 7e 
00 25 4f 00 68 52 5f 00 00 00 00 00 00 01 00 7e 
00 25 aa 00 68 52 5f 00 00 00 00 00 00 01 00 7e 
00 25 36 00 68 52 5f 00 00 00 00 00 00 01 00 7e 
00 25 83 00 68 52 5f 00 00 00 00 00 00 01 00 7e 
00 25 5b 00 68 52 5f 00 00 00 00 00 00 01 00 7e 
00 26 24 00 68 52 5f 00 00 00 00 00 00 01 00 7e 
00 25 53 00 68 52 5f 00 00 00 00 00 00 01 00 7e 
00 25 bf 00 68 52 5f 00 00 00 00 00 00 01 00 7e 
00 25 ba 00 68 52 5f 00 00 00 00 00 00 01 00 7e 
00 25 d7 00 68 52 5f 00 00 00 00 00 00 01 00 7e 
00 25 d2 00 68 52 5f 00 00 00 00 00 00 01 00 7e 
00 25 7b 00 68 52 5f 00 00 00 00 00 00 01 00 7e 
00 25 94 00 68 52 5f 00 00 00 00 00 00 01 00 7e 
00 25 b9 00 68 52 5f 00 00 00 00 00 00 01 00 7e 
00 25 9b 00 68 52 5f 00 00 00 00 00 00 01 00 7e 
00 25 9b 00 68 52 5f 00 00 00 00 00 00 01 00 7e 
00 25 4c 00 68 52 5f 00 00 00 00 00 00 01 00 7e 
00 25 80 00 68 52 5f 00 00 00 00 00 00 01 00 7e 
00 25 2a 00 68 52 5f 00 00 00 00 00 00 01 00 7e 
00 25 35 00 68 52 5f 00 00 00 00 00 00 01 00 7e 
00 25 84 00 68 52 5f 00 00 00 00 00 00 01 00 7e 
00 25 5a 00 68 52 5f 00 00 00 00 00 00 01 00 7e 
00 25 d0 00 68 52 5f 00 00 00 00 00 00 01 00 7e 
00 25 7d 00 68 52 5f 00 00 00 00 00 00 01 00 7e 
00 25 61 00 68 52 5f 00 00 00 00 00 00 01 00 7e 
00 25 7d 00 68 52 5f 00 00 00 00 00 00 01 00 7e 
00 25 ca 00 68 52 5f 00 00 00 00 00 00 01 00 7e 
00 25 54 00 68 52 5f 00 00 00 00 00 00 01 00 7e 
00 25 a9 00 68 52 5f 00 00 00 00 00 00 01 00 7e 
00 25 cc 00 68 52 5f 00 00 00 00 00 00 01 00 7e 
00 25 6d 00 68 52 5f 00 00 00 00 00 00 01 00 7e 
00 25 a5 00 68 52 5f 00 00 00 00 00 00 01 00 7e 
00 25 bc 00 68 52 5f 00 00 00 00 00 00 01 00 7e 
00 25 87 00 68 52 5f 00 00 00 00 00 00 01 00 7e 
00 25 ad 00 68 52 5f 00 00 00 00 00 00 01 00 7e 
00 25 11 00 68 52 5f 00 00 00 00 00 00 01 00 7e 
00 25 9f 00 68 52 5f 00 00 00 00 00 00 01 00 7e 
00 25 4b 00 68 52 5f 00 00 00 00 00 00 01 00 7e 
00 25 94 00 68 52 5f 00 00 00 00 00 00 01 00 7e 
00 25 e1 00 68 52 5f 00 00 00 00 00 00 01 00 7e 
00 25 18 00 68 52 5f 00 00 00 00 00 00 01 00 7e 
00 25 b6 00 68 52 5f 00 00 00 00 00 00 01 00 7e 
00 25 c2 00 68 52 5f 00 00 00 00 00 00 01 00 7e 
00 25 55 00 68 52 5f 00 00 00 00 00 00 01 00 7e 
00 25 cb 00 68 52 5f 00 00 00 00 00 00 01 00 7e 
00 25 cf 00 68 52 5f 00 00 00 00 00 00 01 00 7e 
00 25 6a 00 68 52 5f 00 00 00 00 00 00 01 00 7e 
00 25 3a 00 68 52 5f 00 00 00 00 00 00 01 00 7e 
00 25 66 00 68 52 5f 00 00 00 00 00 00 01 00 7e 
00 25 9c 00 68 52 5f 00 00 00 00 00 00 01 00 7e 
00 25 7a 00 68 52 5f 00 00 00 00 00 00 01 00 7e 
00 25 aa 00 68 52 5f 00 00 00 00 00 00 01 00 7e 
00 25 a4 00 68 52 5f 00 00 00 00 00 00 01 00 7e 
00 25 db 00 68 52 5f 00 00 00 00 00 00 01 00 7e 
00 25 78 00 68 52 5f 00 00 00 00 00 00 01 00 7e 
00 25 9c 00 68 52 5f 00 00 00 00 00 00 01 00 7e 
00 25 e1 00 68 52 5f 00 00 00 00 00 00 01 00 7e 
00 25 bc 00 68 52 5f 00 00 00 00 00 00 01 00 7e 
00 25 97 00 68 52 5f 00 00 00 00 00 00 01 00 7e 
00 25 8b 00 68 52 5f 00 00 00 00 00 00 01 00 7e 
00 25 a3 00 68 52 5f 00 00 00 00 00 00 01 00 7e 
00 25 61 00 68 52 5f 00 00 00 00 00 00 01 00 7e 
00 25 6e 00 68 52 5f 00 00 00 00 00 00 01 00 7e 
00 25 0e 00 68 52 5f 00 00 00 00 00 00 01 00 7e 
00 25 d0 00 68 52 5f 00 00 00 00 00 00 01 00 7e 
00 25 43 00 68 52 5f 00 00 00 00 00 00 01 00 7e 
00 24 ec 00 68 52 5f 00 00 00 00 00 00 01 00 7e 
00 24 ff 00 68 52 5f 00 00 00 00 00 00 01 00 7e 
00 25 8f 00 68 52 5f 00 00 00 00 00 00 01 00 7e 
00 25 8c 00 68 52 5f 00 00 00 00 00 00 01 00 7e 
00 25 c8 00 68 52 5f 00 00 00 00 00 00 01 00 7e 
00 25 69 00 68 52 5f 00 00 00 00 00 00 01 00 7e 
00 25 60 00 68 52 5f 00 00 00 00 00 00 01 00 7e 
00 25 4a 00 68 52 5f 00 00 00 00 00 00 01 00 7e 
00 25 bf 00 68 52 5f 00 00 00 00 00 00 01 00 7e 
00 25 4e 00 68 52 5f 00 00 00 00 00 00 01 00 7e 
00 25 75 00 68 52 5f 00 00 00 00 00 00 01 00 7e 
00 25 44 00 68 52 5f 00 00 00 00 00 00 01 00 7e 
00 25 47 00 68 52 5f 00 00 00 00 00 00 01 00 7e 
00 25 95 00 68 52 5f 00 00 00 00 00 00 01 00 7e 
00 25 cb 00 68 52 5f 00 00 00 00 00 00 01 00 7e 
00 25 84 00 68 52 5f 00 00 00 00 00 00 01 00 7e 
00 25 84 00 68 52 5f 00 00 00 00 00 00 01 00 7e 
00 25 77 00 68 52 5f 00 00 00 00 00 00 01 00 7e 
00 25 6f 00 68 52 5f 00 00 00 00 00 00 01 00 7e 
00 25 53 00 68 52 5f 00 00 00 00 00 00 01 00 7e 
00 25 48 00 68 52 5f 00 00 00 00 00 00 01 00 7e 
00 25 5f 00 68 52 5f 00 00 00 00 00 00 01 00 7e 
00 25 d1 00 68 52 5f 00 00 00 00 00 00 01 00 7e 
00 25 b3 00 68 52 5f 00 00 00 00 00 00 01 00 7e 
00 25 e7 00 68 52 5f 00 00 00 00 00 00 01 00 7e 
00 25 5c 00 68 52 5f 00 00 00 00 00 00 01 00 7e 
00 26 2c 00 68 52 5f 00 00 00 00 00 00 01 00 7e 
00 25 d1 00 68 52 5f 00 00 00 00 00 00 01 00 7e 
00 25 cf 00 68 52 5f 00 00 00 00 00 00 01 00 7e 
00 25 cd 00 68 52 5f 00 00 00 00 00 00 01 00 7e 
00 25 ba 00 68 52 5f 00 00 00 00 00 00 01 00 7e 
00 25 92 00 68 52 5f 00 00 00 00 00 00 01 00 7e 
00 25 ad 00 68 52 5f 00 00 00 00 00 00 01 00 7e 
00 25 a5 00 68 52 5f 00 00 00 00 00 00 01 00 7e 
00 25 cf 00 68 52 5f 00 00 00 00 00 00 01 00 7e 
00 25 87 00 68 52 5f 00 00 00 00 00 00 01 00 7e 
00 25 b3 00 68 52 5f 00 00 00 00 00 00 01 00 7e 
00 25 8b 00 68 52 5f 00 00 00 00 00 00 01 00 7e 
00 25 a5 00 68 52 5f 00 00 00 00 00 00 01 00 7e 
00 25 77 00 68 52 5f 00 00 00 00 00 00 01 00 7e 
00 25 73 00 68 52 5f 00 00 00 00 00 00 01 00 7e 
00 25 ce 00 68 52 5f 00 00 00 00 00 00 01 00 7e 
00 25 25 00 68 52 5f 00 00 00 00 00 00 01 00 7e 
00 25 1f 00 68 52 5f 00 00 00 00 00 00 01 00 7e 
00 25 77 00 68 52 5f 00 00 00 00 00 00 01 00 7e 
00 25 73 00 68 52 5f 00 00 00 00 00 00 01 00 7e 
00 25 b6 00 68 52 5f 00 00 00 00 00 00 01 00 7e 
00 25 54 00 68 52 5f 00 00 00 00 00 00 01 00 7e 
00 25 be 00 68 52 5f 00 00 00 00 00 00 01 00 7e 
00 25 69 00 68 52 5f 00 00 00 00 00 00 01 00 7e 
00 25 9e 00 68 52 5f 00 00 00 00 00 00 01 00 7e 
00 25 b7 00 68 52 5f 00 00 00 00 00 00 01 00 7e 
00 25 ce 00 68 52 5f 00 00 00 00 00 00 01 00 7e 
00 25 b3 00 68 52 5f 00 00 00 00 00 00 01 00 7e 
00 25 7a 00 68 52 5f 00 00 00 00 00 00 01 00 7e 
00 25 b2 00 68 52 5f 00 00 00 00 00 00 01 00 7e 
00 25 9c 00 68 52 5f 00 00 00 00 00 00 01 00 7e 
00 25 d2 00 68 52 5f 00 00 00 00 00 00 01 00 7e 
00 25 3c 00 68 52 5f 00 00 00 00 00 00 01 00 7e 
00 25 b3 00 68 52 5f 00 00 00 00 00 00 01 00 7e 
00 25 77 00 68 52 5f 00 00 00 00 00 00 01 00 7e 
00 25 1f 00 68 52 5f 00 00 00 00 00 00 01 00 7e 
00 25 e4 00 68 52 5f 00 00 00 00 00 00 01 00 7e 
00 25 a0 00 68 52 5f 00 00 00 00 00 00 01 00 7e 
00 25 bd 00 68 52 5f 00 00 00 00 00 00 01 00 7e 
00 25 1b 00 68 52 5f 00 00 00 00 00 00 01 00 7e 
00 25 8f 00 68 52 5f 00 00 00 00 00 00 01 00 7e 
00 25 7c 00 68 52 5f 00 00 00 00 00 00 01 00 7e 
00 25 c2 00 68 52 5f 00 00 00 00 00 00 01 00 7e 
00 25 dc 00 68 52 5f 00 00 00 00 00 00 01 00 7e 
00 25 a2 00 68 52 5f 00 00 00 00 00 00 01 00 7e 
00 25 8a 00 68 52 5f 00 00 00 00 00 00 01 00 7e 
00 25 3d 00 68 52 5f 00 00 00 00 00 00 01 00 7e 
00 25 bb 00 68 52 5f 00 00 00 00 00 00 01 00 7e 
00 25 84 00 68 52 5f 00 00 00 00 00 00 01 00 7e 
00 25 89 00 68 52 5f 00 00 00 00 00 00 01 00 7e 
00 25 39 00 68 52 5f 00 00 00 00 00 00 01 00 7e 
00 25 92 00 68 52 5f 00 00 00 00 00 00 01 00 7e 
00 25 66 00 68 52 5f 00 00 00 00 00 00 01 00 7e 
00 25 e1 00 68 52 5f 00 00 00 00 00 00 01 00 7e 
00 25 4c 00 68 52 5f 00 00 00 00 00 00 01 00 7e 
00 25 1b 00 68 52 5f 00 00 00 00 00 00 01 00 7e 
00 26 0b 00 68 52 5f 00 00 00 00 00 00 01 00 7e 
00 25 56 00 68 52 5f 00 00 00 00 00 00 01 00 7e 
00 25 91 00 68 52 5f 00 00 00 00 00 00 01 00 7e 
00 25 ba 00 68 52 5f 00 00 00 00 00 00 01 00 7e 
00 25 e4 00 68 52 5f 00 00 00 00 00 00 01 00 7e 
00 25 9b 00 68 52 5f 00 00 00 00 00 00 01 00 7e 
00 25 e4 00 68 52 5f 00 00 00 00 00 00 01 00 7e 
00 25 99 00 68 52 5f 00 00 00 00 00 00 01 00 7e 
00 25 7b 00 68 52 5f 00 00 00 00 00 00 01 00 7e 
00 25 bc 00 68 52 5f 00 00 00 00 00 00 01 00 7e 
00 24 e7 00 68 52 5f 00 00 00 00 00 00 01 00 7e 
00 25 8c 00 68 52 5f 00 00 00 00 00 00 01 00 7e 
00 25 c1 00 68 52 5f 00 00 00 00 00 00 01 00 7e 
00 25 7b 00 68 52 5f 00 00 00 00 00 00 01 00 7e 
00 25 82 00 68 52 5f 00 00 00 00 00 00 01 00 7e 
00 25 97 00 68 52 5f 00 00 00 00 00 00 01 00 7e 
00 25 ad 00 68 52 5f 00 00 00 00 00 00 01 00 7e 
00 25 6b 00 68 52 5f 00 00 00 00 00 00 01 00 7e 
00 25 54 00 68 52 5f 00 00 00 00 00 00 01 00 7e 
00 25 9c 00 68 52 5f 00 00 00 00 00 00 01 00 7e 
00 25 d0 00 68 52 5f 00 00 00 00 00 00 01 00 7e 
00 25 bc 00 68 52 5f 00 00 00 00 00 00 01 00 7e 
00 25 5b 00 68 52 5f 00 00 00 00 00 00 01 00 7e 
00 25 31 00 68 52 5f 00 00 00 00 00 00 01 00 7e 
00 25 3d 00 68 52 5f 00 00 00 00 00 00 01 00 7e 
00 25 86 00 68 52 5f 00 00 00 00 00 00 01 00 7e 
00 25 a8 00 68 52 5f 00 00 00 00 00 00 01 00 7e 
00 25 c8 00 68 52 5f 00 00 00 00 00 00 01 00 7e 
00 25 69 00 68 52 5f 00 00 00 00 00 00 01 00 7e 
00 25 de 00 68 52 5f 00 00 00 00 00 00 01 00 7e 
00 25 48 00 68 52 5f 00 00 00 00 00 00 01 00 7e 
00 25 d8 00 68 52 5f 00 00 00 00 00 00 01 00 7e 
00 25 e3 00 68 52 5f 00 00 00 00 00 00 01 00 7e 
00 26 1f 00 68 52 5f 00 00 00 00 00 00 01 00 7e 
00 25 82 00 68 52 5f 00 00 00 00 00 00 01 00 7e 
00 25 ae 00 68 52 5f 00 00 00 00 00 00 01 00 7e 
00 25 a3 00 68 52 5f 00 00 00 00 00 00 01 00 7e 
00 25 8d 00 68 52 5f 00 00 00 00 00 00 01 00 7e 
00 25 79 00 68 52 5f 00 00 00 00 00 00 01 00 7e 
00 26 0a 00 68 52 5f 00 00 00 00 00 00 01 00 7e 
00 25 5f 00 68 52 5f 00 00 00 00 00 00 01 00 7e 
00 25 7c 00 68 52 5f 00 00 00 00 00 00 01 00 7e 
00 25 b2 00 68 52 5f 00 00 00 00 00 00 01 00 7e 
00 25 d8 00 68 52 5f 00 00 00 00 00 00 01 00 7e 
00 25 a8 00 68 52 5f 00 00 00 00 00 00 01 00 7e 
00 25 bd 00 68 52 5f 00 00 00 00 00 00 01 00 7e 
00 25 6f 00 68 52 5f 00 00 00 00 00 00 01 00 7e 
00 25 94 00 68 52 5f 00 00 00 00 00 00 01 00 7e 
00 25 73 00 68 52 5f 00 00 00 00 00 00 01 00 7e 
00 25 50 00 68 52 5f 00 00 00 00 00 00 01 00 7e 
00 25 e0 00 68 52 5f 00 00 00 00 00 00 01 00 7e 
00 25 93 00 68 52 5f 00 00 00 00 00 00 01 00 7e 
00 25 6d 00 68 52 5f 00 00 00 00 00 00 01 00 7e 
00 25 e0 00 68 52 5f 00 00 00 00 00 00 01 00 7e 
00 25 7a 00 68 52 5f 00 00 00 00 00 00 01 00 7e 
00 25 13 00 68 52 5f 00 00 00 00 00 00 01 00 7e 
00 25 be 00 68 52 5f 00 00 00 00 00 00 01 00 7e 
00 25 7d 00 68 52 5f 00 00 00 00 00 00 01 00 7e 
00 25 c3 00 68 52 5f 00 00 00 00 00 00 01 00 7e 
00 25 41 00 68 52 5f 00 00 00 00 00 00 01 00 7e 
00 25 88 00 68 52 5f 00 00 00 00 00 00 01 00 7e 
00 25 90 00 68 52 5f 00 00 00 00 00 00 01 00 7e 
00 25 21 00 68 52 5f 00 00 00 00 00 00 01 00 7e 
00 25 5d 00 68 52 5f 00 00 00 00 00 00 01 00 7e 
00 25 e1 00 68 52 5f 00 00 00 00 00 00 01 00 7e 
00 25 5f 00 68 52 5f 00 00 00 00 00 00 01 00 7e 
00 25 30 00 68 52 5f 00 00 00 00 00 00 01 00 7e 
00 25 43 00 68 52 5f 00 00 00 00 00 00 01 00 7e 
00 25 89 00 68 52 5f 00 00 00 00 00 00 01 00 7e 
00 25 af 00 68 52 5f 00 00 00 00 00 00 01 00 7e 
00 25 31 00 68 52 5f 00 00 00 00 00 00 01 00 7e 
00 24 ea 00 68 52 5f 00 00 00 00 00 00 01 00 7e 
00 25 59 00 68 52 5f 00 00 00 00 00 00 01 00 7e 
00 25 75 00 68 52 5f 00 00 00 00 00 00 01 00 7e 
00 25 8a 00 68 52 5f 00 00 00 00 00 00 01 00 7e 
00 25 a5 00 68 52 5f 00 00 00 00 00 00 01 00 7e 
00 25 10 00 68 52 5f 00 00 00 00 00 00 01 00 7e 
00 25 f2 00 68 52 5f 00 00 00 00 00 00 01 00 7e 
00 25 9b 00 68 52 5f 00 00 00 00 00 00 01 00 7e 
00 25 6f 00 68 52 5f 00 00 00 00 00 00 01 00 7e 
00 25 99 00 68 52 5f 00 00 00 00 00 00 01 00 7e 
00 25 6a 00 68 52 5f 00 00 00 00 00 00 01 00 7e 
00 25 8c 00 68 52 5f 00 00 00 00 00 00 01 00 7e 
00 25 94 00 68 52 5f 00 00 00 00 00 00 01 00 7e 
00 25 ae 00 68 52 5f 00 00 00 00 00 00 01 00 7e 
00 25 18 00 68 52 5f 00 00 00 00 00 00 01 00 7e 
00 25 bb 00 68 52 5f 00 00 00 00 00 00 01 00 7e 
00 25 c2 00 68 52 5f 00 00 00 00 00 00 01 00 7e 
00 26 2d 00 68 52 5f 00 00 00 00 00 00 01 00 7e 
00 25 80 00 68 52 5f 00 00 00 00 00 00 01 00 7e 
00 25 55 00 68 52 5f 00 00 00 00 00 00 01 00 7e 
00 25 9c 00 68 52 5f 00 00 00 00 00 00 01 00 7e 
00 25 db 00 68 52 5f 00 00 00 00 00 00 01 00 7e 
00 25 a6 00 68 52 5f 00 00 00 00 00 00 01 00 7e 
00 26 14 00 68 52 5f 00 00 00 00 00 00 01 00 7e 
00 25 c3 00 68 52 5f 00 00 00 00 00 00 01 00 7e 
00 25 9e 00 68 52 5f 00 00 00 00 00 00 01 00 7e 
00 25 7f 00 68 52 5f 00 00 00 00 00 00 01 00 7e 
00 25 e2 00 68 52 5f 00 00 00 00 00 00 01 00 7e 
00 26 36 00 68 52 5f 00 00 00 00 00 00 01 00 7e 
00 25 a5 00 68 52 5f 00 00 00 00 00 00 01 00 7e 
00 25 82 00 68 52 5f 00 00 00 00 00 00 01 00 7e 
00 25 e0 00 68 52 5f 00 00 00 00 00 00 01 00 7e 
00 25 cc 00 68 52 5f 00 00 00 00 00 00 01 00 7e 
00 25 b0 00 68 52 5f 00 00 00 00 00 00 01 00 7e 
00 25 b6 00 68 52 5f 00 00 00 00 00 00 01 00 7e 
00 25 44 00 68 52 5f 00 00 00 00 00 00 01 00 7e 
00 25 bf 00 68 52 5f 00 00 00 00 00 00 01 00 7e 
00 25 bc 00 68 52 5f 00 00 00 00 00 00 01 00 7e 
00 25 b3 00 68 52 5f 00 00 00 00 00 00 01 00 7e 
00 25 9a 00 68 52 5f 00 00 00 00 00 00 01 00 7e 
00 25 60 00 68 52 5f 00 00 00 00 00 00 01 00 7e 
00 25 b7 00 68 52 5f 00 00 00 00 00 00 01 00 7e 
00 25 aa 00 68 52 5f 00 00 00 00 00 00 01 00 7e 
00 25 89 00 68 52 5f 00 00 00 00 00 00 01 00 7e 
00 25 8b 00 68 52 5f 00 00 00 00 00 00 01 00 7e 
00 25 de 00 68 52 5f 00 00 00 00 00 00 01 00 7e 
00 25 9a 00 68 52 5f 00 00 00 00 00 00 01 00 7e 
00 25 a9 00 68 52 5f 00 00 00 00 00 00 01 00 7e 
00 26 10 00 68 52 5f 00 00 00 00 00 00 01 00 7e 
00 25 72 00 68 52 5f 00 00 00 00 00 00 01 00 7e 
00 25 97 00 68 52 5f 00 00 00 00 00 00 01 00 7e 
00 25 d9 00 68 52 5f 00 00 00 00 00 00 01 00 7e 
00 25 32 00 68 52 5f 00 00 00 00 00 00 01 00 7e 
00 25 0b 00 68 52 5f 00 00 00 00 00 00 01 00 7e 
00 25 54 00 68 52 5f 00 00 00 00 00 00 01 00 7e 
00 25 31 00 68 52 5f 00 00 00 00 00 00 01 00 7e 
00 25 be 00 68 52 5f 00 00 00 00 00 00 01 00 7e 
00 25 11 00 68 52 5f 00 00 00 00 00 00 01 00 7e 
00 25 9d 00 68 52 5f 00 00 00 00 00 00 01 00 7e 
00 25 94 00 68 52 5f 00 00 00 00 00 00 01 00 7e 
00 25 e1 00 68 52 5f 00 00 00 00 00 00 01 00 7e 
00 25 87 00 68 52 5f 00 00 00 00 00 00 01 00 7e 
00 25 95 00 68 52 5f 00 00 00 00 00 00 01 00 7e 
00 25 5e 00 68 52 5f 00 00 00 00 00 00 01 00 7e 
00 25 47 00 68 52 5f 00 00 00 00 00 00 01 00 7e 
00 25 c5 00 68 52 5f 00 00 00 00 00 00 01 00 7e 
00 25 5e 00 68 52 5f 00 00 00 00 00 00 01 00 7e 
00 25 3e 00 68 52 5f 00 00 00 00 00 00 01 00 7e 
00 25 e9 00 68 52 5f 00 00 00 00 00 00 01 00 7e 
00 25 5b 00 68 52 5f 00 00 00 00 00 00 01 00 7e 
00 25 e7 00 68 52 5f 00 00 00 00 00 00 01 00 7e 
00 25 a4 00 68 52 5f 00 00 00 00 00 00 01 00 7e 
00 25 e1 00 68 52 5f 00 00 00 00 00 00 01 00 7e 
00 25 41 00 68 52 5f 00 00 00 00 00 00 01 00 7e 
00 25 66 00 68 52 5f 00 00 00 00 00 00 01 00 7e 
00 25 3f 00 68 52 5f 00 00 00 00 00 00 01 00 7e 
00 25 53 00 68 52 5f 00 00 00 00 00 00 01 00 7e 
00 25 d7 00 68 52 5f 00 00 00 00 00 00 01 00 7e 
00 25 78 00 68 52 5f 00 00 00 00 00 00 01 00 7e 
00 25 4a 00 68 52 5f 00 00 00 00 00 00 01 00 7e 
00 25 e5 00 68 52 5f 00 00 00 00 00 00 01 00 7e 
00 25 6b 00 68 52 5f 00 00 00 00 00 00 01 00 7e 
00 25 16 00 68 52 5f 00 00 00 00 00 00 01 00 7e 
00 25 59 00 68 52 5f 00 00 00 00 00 00 01 00 7e 
00 25 78 00 68 52 5f 00 00 00 00 00 00 01 00 7e 
00 25 47 00 68 52 5f 00 00 00 00 00 00 01 00 7e 
00 25 8f 00 68 52 5f 00 00 00 00 00 00 01 00 7e 
00 25 17 00 68 52 5f 00 00 00 00 00 00 01 00 7e 
00 25 43 00 68 52 5f 00 00 00 00 00 00 01 00 7e 
00 25 a8 00 68 52 5f 00 00 00 00 00 00 01 00 7e 
00 26 0f 00 68 52 5f 00 00 00 00 00 00 01 00 7e 
00 25 8f 00 68 52 5f 00 00 00 00 00 00 01 00 7e 
00 25 46 00 68 52 5f 00 00 00 00 00 00 01 00 7e 
00 26 17 00 68 52 5f 00 00 00 00 00 00 01 00 7e 
00 25 cc 00 68 52 5f 00 00 00 00 00 00 01 00 7e 
00 25 f2 00 68 52 5f 00 00 00 00 00 00 01 00 7e 
00 25 a4 00 68 52 5f 00 00 00 00 00 00 01 00 7e 
00 25 d5 00 68 52 5f 00 00 00 00 00 00 01 00 7e 
00 25 92 00 68 52 5f 00 00 00 00 00 00 01 00 7e 
00 25 9c 00 68 52 5f 00 00 00 00 00 00 01 00 7e 
00 25 59 00 68 52 5f 00 00 00 00 00 00 01 00 7e 
00 25 c5 00 68 52 5f 00 00 00 00 00 00 01 00 7e 
00 25 9b 00 68 52 5f 00 00 00 00 00 00 01 00 7e 
00 25 60 00 68 52 5f 00 00 00 00 00 00 01 00 7e 
00 25 8b 00 68 52 5f 00 00 00 00 00 00 01 00 7e 
00 25 a4 00 68 52 5f 00 00 00 00 00 00 01 00 7e 
00 25 50 00 68 52 5f 00 00 00 00 00 00 01 00 7e 
00 25 17 00 68 52 5f 00 00 00 00 00 00 01 00 7e 
00 25 26 00 68 52 5f 00 00 00 00 00 00 01 00 7e 
00 25 48 00 68 52 5f 00 00 00 00 00 00 01 00 7e 
00 25 4a 00 68 52 5f 00 00 00 00 00 00 01 00 7e 
00 25 12 00 68 52 5f 00 00 00 00 00 00 01 00 7e 
00 25 26 00 68 52 5f 00 00 00 00 00 00 01 00 7e 
00 25 47 00 68 52 5f 00 00 00 00 00 00 01 00 7e 
00 25 46 00 68 52 5f 00 00 00 00 00 00 01 00 7e 
00 25 7c 00 68 52 5f 00 00 00 00 00 00 01 00 7e 
00 24 ff 00 68 52 5f 00 00 00 00 00 00 01 00 7e 
00 24 d8 00 68 52 5f 00 00 00 00 00 00 01 00 7e 
00 25 58 00 68 52 5f 00 00 00 00 00 00 01 00 7e 
00 25 70 00 68 52 5f 00 00 00 00 00 00 01 00 7e 
00 25 2a 00 68 52 5f 00 00 00 00 00 00 01 00 7e 
00 25 be 00 68 52 5f 00 00 00 00 00 00 01 00 7e 
00 25 78 00 68 52 5f 00 00 00 00 00 00 01 00 7e 
00 25 2e 00 68 52 5f 00 00 00 00 00 00 01 00 7e 
00 25 9e 00 68 52 5f 00 00 00 00 00 00 01 00 7e 
00 25 20 00 68 52 5f 00 00 00 00 00 00 01 00 7e 
00 25 e5 00 68 52 5f 00 00 00 00 00 00 01 00 7e 
00 25 2e 00 68 52 5f 00 00 00 00 00 00 01 00 7e 
00 25 71 00 68 52 5f 00 00 00 00 00 00 01 00 7e 
00 25 db 00 68 52 5f 00 00 00 00 00 00 01 00 7e 
00 25 43 00 68 52 5f 00 00 00 00 00 00 01 00 7e 
00 25 44 00 68 52 5f 00 00 00 00 00 00 01 00 7e 
00 25 2d 00 68 52 5f 00 00 00 00 00 00 01 00 7e 
00 25 31 00 68 52 5f 00 00 00 00 00 00 01 00 7e 
00 25 80 00 68 52 5f 00 00 00 00 00 00 01 00 7e 
00 25 00 00 68 52 5f 00 00 00 00 00 00 01 00 7e 
00 25 39 00 68 52 5f 00 00 00 00 00 00 01 00 7e 
00 25 36 00 68 52 5f 00 00 00 00 00 00 01 00 7e 
00 25 5a 00 68 52 5f 00 00 00 00 00 00 01 00 7e 
00 25 03 00 68 52 5f 00 00 00 00 00 00 01 00 7e 
00 24 e8 00 68 52 5f 00 00 00 00 00 00 01 00 7e 
00 25 75 00 68 52 5f 00 00 00 00 00 00 01 00 7e 
00 25 01 00 68 52 5f 00 00 00 00 00 00 01 00 7e 
00 25 4c 00 68 52 5f 00 00 00 00 00 00 01 00 7e 
00 25 2b 00 68 52 5f 00 00 00 00 00 00 01 00 7e 
00 25 8d 00 68 52 5f 00 00 00 00 00 00 01 00 7e 
00 24 f7 00 68 52 5f 00 00 00 00 00 00 01 00 7e 
00 25 1a 00 68 52 5f 00 00 00 00 00 00 01 00 7e 
00 25 03 00 68 52 5f 00 00 00 00 00 00 01 00 7e 
00 25 65 00 68 52 5f 00 00 00 00 00 00 01 00 7e 
00 25 7e 00 68 52 5f 00 00 00 00 00 00 01 00 7e 
00 25 36 00 68 52 5f 00 00 00 00 00 00 01 00 7e 
00 25 aa 00 68 52 5f 00 00 00 00 00 00 01 00 7e 
00 25 83 00 68 52 5f 00 00 00 00 00 00 01 00 7e 
00 25 6f 00 68 52 5f 00 00 00 00 00 00 01 00 7e 
00 25 c5 00 68 52 5f 00 00 00 00 00 00 01 00 7e 
00 25 47 00 68 52 5f 00 00 00 00 00 00 01 00 7e 
00 25 a8 00 68 52 5f 00 00 00 00 00 00 01 00 7e 
00 25 98 00 68 52 5f 00 00 00 00 00 00 01 00 7e 
00 25 73 00 68 52 5f 00 00 00 00 00 00 01 00 7e 
00 25 53 00 68 52 5f 00 00 00 00 00 00 01 00 7e 
00 25 57 00 68 52 5f 00 00 00 00 00 00 01 00 7e 
00 25 5b 00 68 52 5f 00 00 00 00 00 00 01 00 7e 
00 24 fd 00 68 52 5f 00 00 00 00 00 00 01 00 7e 
00 25 ee 00 68 52 5f 00 00 00 00 00 00 01 00 7e 
00 25 ec 00 68 52 5f 00 00 00 00 00 00 01 00 7e 
00 25 9d 00 68 52 5f 00 00 00 00 00 00 01 00 7e 
00 25 5b 00 68 52 5f 00 00 00 00 00 00 01 00 7e 
00 25 26 00 68 52 5f 00 00 00 00 00 00 01 00 7e 
00 25 28 00 68 52 5f 00 00 00 00 00 00 01 00 7e 
00 25 47 00 68 52 5f 00 00 00 00 00 00 01 00 7e 
00 25 1f 00 68 52 5f 00 00 00 00 00 00 01 00 7e 
00 25 0a 00 68 52 5f 00 00 00 00 00 00 01 00 7e 
00 25 38 00 68 52 5f 00 00 00 00 00 00 01 00 7e 
00 25 54 00 68 52 5f 00 00 00 00 00 00 01 00 7e 
00 25 29 00 68 52 5f 00 00 00 00 00 00 01 00 7e 
00 25 94 00 68 52 5f 00 00 00 00 00 00 01 00 7e 
00 25 1f 00 68 52 5f 00 00 00 00 00 00 01 00 7e 
00 25 90 00 68 52 5f 00 00 00 00 00 00 01 00 7e 
00 25 76 00 68 52 5f 00 00 00 00 00 00 01 00 7e 
00 25 5e 00 68 52 5f 00 00 00 00 00 00 01 00 7e 
00 25 6c 00 68 52 5f 00 00 00 00 00 00 01 00 7e 
00 25 7c 00 68 52 5f 00 00 00 00 00 00 01 00 7e 
00 25 58 00 68 52 5f 00 00 00 00 00 00 01 00 7e 
00 24 e4 00 68 52 5f 00 00 00 00 00 00 01 00 7e 
00 25 69 00 68 52 5f 00 00 00 00 00 00 01 00 7e 
00 25 b1 00 68 52 5f 00 00 00 00 00 00 01 00 7e 
00 25 44 00 68 52 5f 00 00 00 00 00 00 01 00 7e 
00 25 9a 00 68 52 5f 00 00 00 00 00 00 01 00 7e 
00 25 54 00 68 52 5f 00 00 00 00 00 00 01 00 7e 
00 25 ab 00 68 52 5f 00 00 00 00 00 00 01 00 7e 
00 25 39 00 68 52 5f 00 00 00 00 00 00 01 00 7e 
00 25 8d 00 68 52 5f 00 00 00 00 00 00 01 00 7e 
00 25 33 00 68 52 5f 00 00 00 00 00 00 01 00 7e 
00 25 88 00 68 52 5f 00 00 00 00 00 00 01 00 7e 
00 25 9b 00 68 52 5f 00 00 00 00 00 00 01 00 7e 
00 25 6f 00 68 52 5f 00 00 00 00 00 00 01 00 7e 
00 25 65 00 68 52 5f 00 00 00 00 00 00 01 00 7e 
00 24 f6 00 68 52 5f 00 00 00 00 00 00 01 00 7e 
00 25 ab 00 68 52 5f 00 00 00 00 00 00 01 00 7e 
00 25 83 00 68 52 5f 00 00 00 00 00 00 01 00 7e 
00 25 1b 00 68 52 5f 00 00 00 00 00 00 01 00 7e 
00 25 66 00 68 52 5f 00 00 00 00 00 00 01 00 7e 
00 25 31 00 68 52 5f 00 00 00 00 00 00 01 00 7e 
00 25 92 00 68 52 5f 00 00 00 00 00 00 01 00 7e 
00 24 ef 00 68 52 5f 00 00 00 00 00 00 01 00 7e 
00 25 48 00 68 52 5f 00 00 00 00 00 00 01 00 7e 
00 25 57 00 68 52 5f 00 00 00 00 00 00 01 00 7e 
00 25 22 00 68 52 5f 00 00 00 00 00 00 01 00 7e 
00 25 b1 00 68 52 5f 00 00 00 00 00 00 01 00 7e 
00 25 81 00 68 52 5f 00 00 00 00 00 00 01 00 7e 
00 25 8a 00 68 52 5f 00 00 00 00 00 00 01 00 7e 
00 25 90 00 68 52 5f 00 00 00 00 00 00 01 00 7e 
00 25 57 00 68 52 5f 00 00 00 00 00 00 01 00 7e 
00 25 a5 00 68 52 5f 00 00 00 00 00 00 01 00 7e 
00 25 48 00 68 52 5f 00 00 00 00 00 00 01 00 7e 
00 25 9c 00 68 52 5f 00 00 00 00 00 00 01 00 7e 
00 25 6f 00 68 52 5f 00 00 00 00 00 00 01 00 7e 
00 25 81 00 68 52 5f 00 00 00 00 00 00 01 00 7e 
00 25 3b 00 68 52 5f 00 00 00 00 00 00 01 00 7e 
00 25 62 00 68 52 5f 00 00 00 00 00 00 01 00 7e 
00 25 53 00 68 52 5f 00 00 00 00 00 00 01 00 7e 
00 26 38 00 68 52 5f 00 00 00 00 00 00 01 00 7e 
00 25 a9 00 68 52 5f 00 00 00 00 00 00 01 00 7e 
00 25 67 00 68 52 5f 00 00 00 00 00 00 01 00 7e 
00 25 70 00 68 52 5f 00 00 00 00 00 00 01 00 7e 
00 25 e3 00 68 52 5f 00 00 00 00 00 00 01 00 7e 
00 25 8e 00 68 52 5f 00 00 00 00 00 00 01 00 7e 
00 25 8a 00 68 52 5f 00 00 00 00 00 00 01 00 7e 
00 25 9b 00 68 52 5f 00 00 00 00 00 00 01 00 7e 
00 25 86 00 68 52 5f 00 00 00 00 00 00 01 00 7e 
00 25 b5 00 68 52 5f 00 00 00 00 00 00 01 00 7e 
00 25 57 00 68 52 5f 00 00 00 00 00 00 01 00 7e 
00 25 2e 00 68 52 5f 00 00 00 00 00 00 01 00 7e 
00 25 e0 00 68 52 5f 00 00 00 00 00 00 01 00 7e 
00 25 6e 00 68 52 5f 00 00 00 00 00 00 01 00 7e 
00 25 55 00 68 52 5f 00 00 00 00 00 00 01 00 7e 
00 25 45 00 68 52 5f 00 00 00 00 00 00 01 00 7e 
00 25 ae 00 68 52 5f 00 00 00 00 00 00 01 00 7e 
00 25 8a 00 68 52 5f 00 00 00 00 00 00 01 00 7e 
00 25 5d 00 68 52 5f 00 00 00 00 00 00 01 00 7e 
00 25 f9 00 68 52 5f 00 00 00 00 00 00 01 00 7e 
00 25 94 00 68 52 5f 00 00 00 00 00 00 01 00 7e 
00 25 bb 00 68 52 5f 00 00 00 00 00 00 01 00 7e 
00 25 8d 00 68 52 5f 00 00 00 00 00 00 01 00 7e 
00 25 d0 00 68 52 5f 00 00 00 00 00 00 01 00 7e 
00 25 84 00 68 52 5f 00 00 00 00 00 00 01 00 7e 
00 25 97 00 68 52 5f 00 00 00 00 00 00 01 00 7e 
00 25 8c 00 68 52 5f 00 00 00 00 00 00 01 00 7e 
00 25 9f 00 68 52 5f 00 00 00 00 00 00 01 00 7e 
00 25 a2 00 68 52 5f 00 00 00 00 00 00 01 00 7e 
00 25 86 00 68 52 5f 00 00 00 00 00 00 01 00 7e 
00 24 e9 00 68 52 5f 00 00 00 00 00 00 01 00 7e 
00 25 aa 00 68 52 5f 00 00 00 00 00 00 01 00 7e 
00 25 76 00 68 52 5f 00 00 00 00 00 00 01 00 7e 
00 25 8d 00 68 52 5f 00 00 00 00 00 00 01 00 7e 
00 25 bd 00 68 52 5f 00 00 00 00 00 00 01 00 7e 
00 25 20 00 68 52 5f 00 00 00 00 00 00 01 00 7e 
00 25 f3 00 68 52 5f 00 00 00 00 00 00 01 00 7e 
00 26 0a 00 68 52 5f 00 00 00 00 00 00 01 00 7e 
00 25 c6 00 68 52 5f 00 00 00 00 00 00 01 00 7e 
00 25 bb 00 68 52 5f 00 00 00 00 00 00 01 00 7e 
00 25 6e 00 68 52 5f 00 00 00 00 00 00 01 00 7e 
00 26 12 00 68 52 5f 00 00 00 00 00 00 01 00 7e 
00 25 e6 00 68 52 5f 00 00 00 00 00 00 01 00 7e 
00 25 de 00 68 52 5f 00 00 00 00 00 00 01 00 7e 
00 25 1a 00 68 52 5f 00 00 00 00 00 00 01 00 7e 
00 25 75 00 68 52 5f 00 00 00 00 00 00 01 00 7e 
00 26 24 00 68 52 5f 00 00 00 00 00 00 01 00 7e 
00 25 82 00 68 52 5f 00 00 00 00 00 00 01 00 7e 
00 25 30 00 68 52 5f 00 00 00 00 00 00 01 00 7e 
00 25 5c 00 68 52 5f 00 00 00 00 00 00 01 00 7e 
00 25 a5 00 68 52 5f 00 00 00 00 00 00 01 00 7e 
00 25 b6 00 68 52 5f 00 00 00 00 00 00 01 00 7e 
00 26 00 00 68 52 5f 00 00 00 00 00 00 01 00 7e 
00 25 d2 00 68 52 5f 00 00 00 00 00 00 01 00 7e 
00 25 d3 00 68 52 5f 00 00 00 00 00 00 01 00 7e 
00 25 be 00 68 52 5f 00 00 00 00 00 00 01 00 7e 
00 26 6c 00 68 52 5f 00 00 00 00 00 00 01 00 7e 
00 26 2d 00 68 52 5f 00 00 00 00 00 00 01 00 7e 
00 25 c0 00 68 52 5f 00 00 00 00 00 00 01 00 7e 
00 26 00 00 68 52 5f 00 00 00 00 00 00 01 00 7e 
00 25 86 00 68 52 5f 00 00 00 00 00 00 01 00 7e 
00 25 9c 00 68 52 5f 00 00 00 00 00 00 01 00 7e 
00 25 98 00 68 52 5f 00 00 00 00 00 00 01 00 7e 
00 25 94 00 68 52 5f 00 00 00 00 00 00 01 00 7e 
00 25 e0 00 68 52 5f 00 00 00 00 00 00 01 00 7e 
00 25 5c 00 68 52 5f 00 00 00 00 00 00 01 00 7e 
00 25 0b 00 68 52 5f 00 00 00 00 00 00 01 00 7e 
00 25 70 00 68 52 5f 00 00 00 00 00 00 01 00 7e 
00 25 26 00 68 52 5f 00 00 00 00 00 00 01 00 7e 
00 25 11 00 68 52 5f 00 00 00 00 00 00 01 00 7e 
00 25 55 00 68 52 5f 00 00 00 00 00 00 01 00 7e 
00 25 2d 00 68 52 5f 00 00 00 00 00 00 01 00 7e 
00 25 4f 00 68 52 5f 00 00 00 00 00 00 01 00 7e 
00 25 56 00 68 52 5f 00 00 00 00 00 00 01 00 7e 
00 25 29 00 68 52 5f 00 00 00 00 00 00 01 00 7e 
00 25 b0 00 68 52 5f 00 00 00 00 00 00 01 00 7e 
00 25 35 00 68 52 5f 00 00 00 00 00 00 01 00 7e 
00 25 a1 00 68 52 5f 00 00 00 00 00 00 01 00 7e 
00 25 ee 00 68 52 5f 00 00 00 00 00 00 01 00 7e 
00 25 4c 00 68 52 5f 00 00 00 00 00 00 01 00 7e 
00 25 a5 00 68 52 5f 00 00 00 00 00 00 01 00 7e 
00 25 28 00 68 52 5f 00 00 00 00 00 00 01 00 7e 
00 25 a9 00 68 52 5f 00 00 00 00 00 00 01 00 7e 
00 25 e7 00 68 52 5f 00 00 00 00 00 00 01 00 7e 
00 24 f8 00 68 52 5f 00 00 00 00 00 00 01 00 7e 
00 25 94 00 68 52 5f 00 00 00 00 00 00 01 00 7e 
00 25 cd 00 68 52 5f 00 00 00 00 00 00 01 00 7e 
00 25 a5 00 68 52 5f 00 00 00 00 00 00 01 00 7e 
00 25 8f 00 68 52 5f 00 00 00 00 00 00 01 00 7e 
00 25 a3 00 68 52 5f 00 00 00 00 00 00 01 00 7e 
00 25 04 00 68 52 5f 00 00 00 00 00 00 01 00 7e 
00 26 1f 00 68 52 5f 00 00 00 00 00 00 01 00 7e 
00 25 66 00 68 52 5f 00 00 00 00 00 00 01 00 7e 
00 25 75 00 68 52 5f 00 00 00 00 00 00 01 00 7e 
00 25 b7 00 68 52 5f 00 00 00 00 00 00 01 00 7e 
00 25 80 00 68 52 5f 00 00 00 00 00 00 01 00 7e 
00 25 55 00 68 52 5f 00 00 00 00 00 00 01 00 7e 
00 25 b7 00 68 52 5f 00 00 00 00 00 00 01 00 7e 
00 25 54 00 68 52 5f 00 00 00 00 00 00 01 00 7e 
00 25 af 00 68 52 5f 00 00 00 00 00 00 01 00 7e 
00 25 b5 00 68 52 5f 00 00 00 00 00 00 01 00 7e 
00 25 62 00 68 52 5f 00 00 00 00 00 00 01 00 7e 
00 25 b4 00 68 52 5f 00 00 00 00 00 00 01 00 7e 
00 25 c8 00 68 52 5f 00 00 00 00 00 00 01 00 7e 
00 25 20 00 68 52 5f 00 00 00 00 00 00 01 00 7e 
00 25 28 00 68 52 5f 00 00 00 00 00 00 01 00 7e 
00 25 59 00 68 52 5f 00 00 00 00 00 00 01 00 7e 
00 25 8f 00 68 52 5f 00 00 00 00 00 00 01 00 7e 
00 25 b2 00 68 52 5f 00 00 00 00 00 00 01 00 7e 
00 25 a3 00 68 52 5f 00 00 00 00 00 00 01 00 7e 
00 25 a4 00 68 52 5f 00 00 00 00 00 00 01 00 7e 
00 25 d0 00 68 52 5f 00 00 00 00 00 00 01 00 7e 
00 25 ae 00 68 52 5f 00 00 00 00 00 00 01 00 7e 
00 26 08 00 68 52 5f 00 00 00 00 00 00 01 00 7e 
00 25 95 00 68 52 5f 00 00 00 00 00 00 01 00 7e 
00 25 7b 00 68 52 5f 00 00 00 00 00 00 01 00 7e 
00 25 50 00 68 52 5f 00 00 00 00 00 00 01 00 7e 
00 25 e7 00 68 52 5f 00 00 00 00 00 00 01 00 7e 
00 25 9a 00 68 52 5f 00 00 00 00 00 00 01 00 7e 
00 25 7a 00 68 52 5f 00 00 00 00 00 00 01 00 7e 
00 25 c8 00 68 52 5f 00 00 00 00 00 00 01 00 7e 
00 25 db 00 68 52 5f 00 00 00 00 00 00 01 00 7e 
00 25 99 00 68 52 5f 00 00 00 00 00 00 01 00 7e 
00 25 be 00 68 52 5f 00 00 00 00 00 00 01 00 7e 
00 25 cc 00 68 52 5f 00 00 00 00 00 00 01 00 7e 
00 25 e2 00 68 52 5f 00 00 00 00 00 00 01 00 7e 
00 25 81 00 68 52 5f 00 00 00 00 00 00 01 00 7e 
00 25 89 00 68 52 5f 00 00 00 00 00 00 01 00 7e 
00 25 ed 00 68 52 5f 00 00 00 00 00 00 01 00 7e 
00 25 77 00 68 52 5f 00 00 00 00 00 00 01 00 7e 
00 25 67 00 68 52 5f 00 00 00 00 00 00 01 00 7e 
00 25 44 00 68 52 5f 00 00 00 00 00 00 01 00 7e 
00 25 6d 00 00 8e 70 00 00 ee 24 00 00 9c 24 7e 
00 25 34 00 00 00 00 00 00 05 00 00 00 01 00 7e 
00 25 3c 00 00 00 00 00 00 05 00 00 00 01 00 7e 
00 25 83 00 00 00 00 00 00 05 00 00 00 01 00 7e 
00 25 13 00 00 00 00 00 00 05 00 00 00 01 00 7e 
00 24 b3 00 00 00 00 00 00 05 00 00 00 01 00 7e 
00 25 61 00 00 00 00 00 00 05 00 00 00 01 00 7e 
00 25 8a 00 00 00 00 00 00 05 00 00 00 01 00 7e 
00 25 c3 00 00 00 00 00 00 05 00 00 00 01 00 7e 
00 25 49 00 00 00 00 00 00 05 00 00 00 01 00 7e 
00 25 7d 00 00 00 00 00 00 05 00 00 00 01 00 7e 
00 25 2c 00 00 00 00 00 00 05 00 00 00 01 00 7e 
00 25 9a 00 00 00 00 00 00 05 00 00 00 01 00 7e 
00 25 2e 00 00 00 00 00 00 05 00 00 00 01 00 7e 
00 25 c7 00 00 00 00 00 00 05 00 00 00 01 00 7e 
00 25 b6 00 00 00 00 00 00 05 00 00 00 01 00 7e 
00 25 55 00 00 00 00 00 00 05 00 00 00 01 00 7e 
00 25 d2 00 00 00 00 00 00 05 00 00 00 01 00 7e 
00 25 78 00 00 00 00 00 00 05 00 00 00 01 00 7e 
00 25 9d 00 00 00 00 00 00 05 00 00 00 01 00 7e 
00 25 bb 00 00 00 00 00 00 05 00 00 00 01 00 7e 
00 25 ee 00 00 00 00 00 00 05 00 00 00 01 00 7e 
00 25 6d 00 00 00 00 00 00 05 00 00 00 01 00 7e 
00 26 30 00 00 00 00 00 00 05 00 00 00 01 00 7e 
00 25 e9 00 00 00 00 00 00 05 00 00 00 01 00 7e 
00 25 58 00 00 00 00 00 00 05 00 00 00 01 00 7e 
00 25 8c 00 00 00 00 00 00 05 00 00 00 01 00 7e 
00 25 b9 00 00 00 00 00 00 05 00 00 00 01 00 7e 
00 25 cb 00 00 00 00 00 00 05 00 00 00 01 00 7e 
00 25 33 00 00 00 00 00 00 05 00 00 00 01 00 7e 
00 25 99 00 00 00 00 00 00 05 00 00 00 01 00 7e 
00 25 c6 00 00 00 00 00 00 05 00 00 00 01 00 7e 
00 25 e1 00 00 00 00 00 00 05 00 00 00 01 00 7e 
00 25 95 00 00 00 00 00 00 05 00 00 00 01 00 7e 
00 26 07 00 00 00 00 00 00 05 00 00 00 01 00 7e 
00 25 ef 00 00 00 00 00 00 05 00 00 00 01 00 7e 
00 25 9f 00 00 00 00 00 00 05 00 00 00 01 00 7e 
00 25 bc 00 00 00 00 00 00 05 00 00 00 01 00 7e 
00 25 8e 00 00 00 00 00 00 05 00 00 00 01 00 7e 
00 25 88 00 00 00 00 00 00 05 00 00 00 01 00 7e 
00 25 76 00 00 00 00 00 00 05 00 00 00 01 00 7e 
00 25 c0 00 00 00 00 00 00 05 00 00 00 01 00 7e 
00 25 e3 00 00 00 00 00 00 05 00 00 00 01 00 7e 
00 25 d3 00 00 00 00 00 00 05 00 00 00 01 00 7e 
00 25 a0 00 00 00 00 00 00 05 00 00 00 01 00 7e 
00 25 e6 00 00 00 00 00 00 05 00 00 00 01 00 7e 
00 26 64 00 00 00 00 00 00 05 00 00 00 01 00 7e 
00 25 d9 00 00 00 00 00 00 05 00 00 00 01 00 7e 
00 25 9f 00 00 00 00 00 00 05 00 00 00 01 00 7e 
00 25 95 00 00 00 00 00 00 05 00 00 00 01 00 7e 
00 25 5b 00 00 00 00 00 00 05 00 00 00 01 00 7e 
00 25 ad 00 00 00 00 00 00 05 00 00 00 01 00 7e 
00 25 d0 00 00 00 00 00 00 05 00 00 00 01 00 7e 
00 25 8b 00 00 00 00 00 00 05 00 00 00 01 00 7e 
00 25 6c 00 00 00 00 00 00 05 00 00 00 01 00 7e 
00 25 95 00 00 00 00 00 00 05 00 00 00 01 00 7e 
00 25 d4 00 00 00 00 00 00 05 00 00 00 01 00 7e 
00 25 a2 00 00 00 00 00 00 05 00 00 00 01 00 7e 
00 25 a0 00 00 00 00 00 00 05 00 00 00 01 00 7e 
00 25 ae 00 00 00 00 00 00 05 00 00 00 01 00 7e 
00 25 cb 00 00 00 00 00 00 05 00 00 00 01 00 7e 
00 25 bc 00 00 00 00 00 00 05 00 00 00 01 00 7e 
00 25 fa 00 00 00 00 00 00 05 00 00 00 01 00 7e 
00 25 bb 00 00 00 00 00 00 05 00 00 00 01 00 7e 
00 26 1d 00 00 00 00 00 00 05 00 00 00 01 00 7e 
00 25 92 00 00 00 00 00 00 05 00 00 00 01 00 7e 
00 25 95 00 00 00 00 00 00 05 00 00 00 01 00 7e 
00 25 7d 00 00 00 00 00 00 05 00 00 00 01 00 7e 
00 25 e2 00 00 00 00 00 00 05 00 00 00 01 00 7e 
00 26 3b 00 00 00 00 00 00 05 00 00 00 01 00 7e 
00 26 24 00 00 00 00 00 00 05 00 00 00 01 00 7e 
00 25 ed 00 00 00 00 00 00 05 00 00 00 01 00 7e 
00 25 fb 00 00 00 00 00 00 05 00 00 00 01 00 7e 
00 25 bb 00 00 00 00 00 00 05 00 00 00 01 00 7e 
00 25 aa 00 00 00 00 00 00 05 00 00 00 01 00 7e 
00 25 78 00 00 00 00 00 00 05 00 00 00 01 00 7e 
00 25 a9 00 00 00 00 00 00 05 00 00 00 01 00 7e 
00 25 84 00 00 00 00 00 00 05 00 00 00 01 00 7e 
00 25 ec 00 00 00 00 00 00 05 00 00 00 01 00 7e 
00 26 3d 00 00 00 00 00 00 05 00 00 00 01 00 7e 
00 25 89 00 00 00 00 00 00 05 00 00 00 01 00 7e 
00 25 dc 00 00 00 00 00 00 05 00 00 00 01 00 7e 
00 26 3a 00 00 00 00 00 00 05 00 00 00 01 00 7e 
00 25 d1 00 00 00 00 00 00 05 00 00 00 01 00 7e 
00 26 10 00 00 00 00 00 00 05 00 00 00 01 00 7e 
00 25 d6 00 00 00 00 00 00 05 00 00 00 01 00 7e 
00 26 23 00 00 00 00 00 00 05 00 00 00 01 00 7e 
00 25 f8 00 00 00 00 00 00 05 00 00 00 01 00 7e 
00 26 04 00 00 00 00 00 00 05 00 00 00 01 00 7e 
00 26 5a 00 00 00 00 00 00 05 00 00 00 01 00 7e 
00 26 31 00 00 00 00 00 00 05 00 00 00 01 00 7e 
00 26 18 00 00 00 00 00 00 05 00 00 00 01 00 7e 
00 25 81 00 00 00 00 00 00 05 00 00 00 01 00 7e 
00 26 0b 00 00 00 00 00 00 05 00 00 00 01 00 7e 
00 25 cd 00 00 00 00 00 00 05 00 00 00 01 00 7e 
00 25 62 00 00 00 00 00 00 05 00 00 00 01 00 7e 
00 26 00 00 00 00 00 00 00 05 00 00 00 01 00 7e 
00 25 92 00 00 00 00 00 00 05 00 00 00 01 00 7e 
00 25 8d 00 00 00 00 00 00 05 00 00 00 01 00 7e 
00 25 7b 00 00 00 00 00 00 05 00 00 00 01 00 7e 
00 25 a4 00 00 00 00 00 00 05 00 00 00 01 00 7e 
00 25 c5 00 00 00 00 00 00 05 00 00 00 01 00 7e 
00 25 a2 00 00 00 00 00 00 05 00 00 00 01 00 7e 
00 25 7e 00 00 00 00 00 00 05 00 00 00 01 00 7e 
00 25 bd 00 00 00 00 00 00 05 00 00 00 01 00 7e 
00 25 e7 00 00 00 00 00 00 05 00 00 00 01 00 7e 
00 25 c0 00 00 00 00 00 00 05 00 00 00 01 00 7e 
00 25 ac 00 00 00 00 00 00 05 00 00 00 01 00 7e 
00 25 6c 00 00 00 00 00 00 05 00 00 00 01 00 7e 
00 25 6c 00 00 00 00 00 00 05 00 00 00 01 00 7e 
00 25 83 00 00 00 00 00 00 05 00 00 00 01 00 7e 
00 25 65 00 00 00 00 00 00 05 00 00 00 01 00 7e 
00 25 6f 00 00 00 00 00 00 05 00 00 00 01 00 7e 
00 25 a9 00 00 00 00 00 00 05 00 00 00 01 00 7e 
00 25 ef 00 00 00 00 00 00 05 00 00 00 01 00 7e 
00 26 3f 00 00 00 00 00 00 05 00 00 00 01 00 7e 
00 25 92 00 00 00 00 00 00 05 00 00 00 01 00 7e 
00 25 47 00 00 00 00 00 00 05 00 00 00 01 00 7e 
00 25 f7 00 00 00 00 00 00 05 00 00 00 01 00 7e 
00 25 e1 00 00 00 00 00 00 05 00 00 00 01 00 7e 
00 25 7d 00 00 00 00 00 00 05 00 00 00 01 00 7e 
00 25 e3 00 00 00 00 00 00 05 00 00 00 01 00 7e 
00 25 ea 00 00 00 00 00 00 05 00 00 00 01 00 7e 
00 25 b9 00 00 00 00 00 00 05 00 00 00 01 00 7e 
00 25 ee 00 00 00 00 00 00 05 00 00 00 01 00 7e 
00 25 c2 00 00 00 00 00 00 05 00 00 00 01 00 7e 
00 25 ee 00 00 00 00 00 00 05 00 00 00 01 00 7e 
00 25 fe 00 00 00 00 00 00 05 00 00 00 01 00 7e 
00 25 bf 00 00 00 00 00 00 05 00 00 00 01 00 7e 
00 25 e5 00 00 00 00 00 00 01 00 00 00 00 00 7e 
00 25 ae 00 00 00 00 00 00 00 00 00 00 01 00 7e 
00 25 e0 00 00 00 00 00 00 00 00 00 00 01 00 7e 
00 26 31 00 00 00 00 00 00 00 00 00 00 01 00 7e 
00 26 09 00 00 00 00 00 00 00 00 00 00 01 00 7e 
00 25 d0 00 00 00 00 00 00 00 00 00 00 01 00 7e 
00 25 de 00 00 00 00 00 00 00 00 00 00 01 00 7e 
00 25 f0 00 00 00 00 00 00 00 00 00 00 01 00 7e 
00 25 a8 00 00 00 00 00 00 00 00 00 00 01 00 7e 
00 26 25 00 00 00 00 00 00 00 00 00 00 01 00 7e 
00 25 a9 00 00 00 00 00 00 00 00 00 00 01 00 7e 
00 26 42 00 00 00 00 00 00 00 00 00 00 01 00 7e 
00 26 15 00 00 00 00 00 00 00 00 00 00 01 00 7e 
00 25 ec 00 00 00 00 00 00 00 00 00 00 01 00 7e 
00 25 f3 00 00 00 00 00 00 00 00 00 00 01 00 7e 
00 25 bc 00 00 00 00 00 00 00 00 00 00 01 00 7e 
00 26 1b 00 00 00 00 00 00 00 00 00 00 01 00 7e 
00 26 44 00 00 00 00 00 00 00 00 00 00 01 00 7e 
00 25 e8 00 00 00 00 00 00 00 00 00 00 01 00 7e 
00 25 87 00 00 00 00 00 00 00 00 00 00 01 00 7e 
00 26 39 00 00 00 00 00 00 00 00 00 00 01 00 7e 
00 26 19 00 00 00 00 00 00 00 00 00 00 01 00 7e 
00 25 c6 00 00 00 00 00 00 00 00 00 00 01 00 7e 
00 26 23 00 00 00 00 00 00 00 00 00 00 01 00 7e 
00 25 e0 00 00 00 00 00 00 00 00 00 00 01 00 7e 
00 25 b2 00 00 00 00 00 00 00 00 00 00 01 00 7e 
00 25 f9 00 00 00 00 00 00 00 00 00 00 01 00 7e 
00 25 ec 00 00 00 00 00 00 00 00 00 00 01 00 7e 
00 26 32 00 00 00 00 00 00 00 00 00 00 01 00 7e 
00 26 04 00 00 00 00 00 00 00 00 00 00 01 00 7e 
00 25 ed 00 00 00 00 00 00 00 00 00 00 01 00 7e 
00 25 d9 00 00 00 00 00 00 00 00 00 00 01 00 7e 
00 25 e9 00 00 00 00 00 00 00 00 00 00 01 00 7e 
00 25 9d 00 00 00 00 00 00 00 00 00 00 01 00 7e 
00 25 83 00 00 00 00 00 00 00 00 00 00 01 00 7e 
00 25 d5 00 00 00 00 00 00 00 00 00 00 01 00 7e 
00 25 97 00 00 00 00 00 00 00 00 00 00 01 00 7e 
00 25 9c 00 00 00 00 00 00 00 00 00 00 01 00 7e 
00 25 f4 00 00 00 00 00 00 00 00 00 00 01 00 7e 
00 25 bc 00 00 00 00 00 00 00 00 00 00 01 00 7e 
00 25 ae 00 00 00 00 00 00 00 00 00 00 01 00 7e 
00 25 ad 00 00 00 00 00 00 00 00 00 00 01 00 7e 
00 26 07 00 00 00 00 00 00 00 00 00 00 01 00 7e 
00 26 05 00 00 00 00 00 00 00 00 00 00 01 00 7e 
00 26 30 00 00 00 00 00 00 00 00 00 00 01 00 7e 
00 26 13 00 00 00 00 00 00 00 00 00 00 01 00 7e 
00 26 07 00 00 00 00 00 00 00 00 00 00 01 00 7e 
00 25 81 00 00 00 00 00 00 00 00 00 00 01 00 7e 
00 25 ca 00 00 00 00 00 00 00 00 00 00 01 00 7e 
00 26 05 00 00 00 00 00 00 00 00 00 00 01 00 7e 
00 25 b1 00 00 00 00 00 00 00 00 00 00 01 00 7e 
00 25 dd 00 00 00 00 00 00 00 00 00 00 01 00 7e 
00 25 a6 00 00 00 00 00 00 00 00 00 00 01 00 7e 
00 26 15 00 00 00 00 00 00 00 00 00 00 01 00 7e 
00 25 7c 00 00 00 00 00 00 00 00 00 00 01 00 7e 
00 26 3a 00 00 00 00 00 00 00 00 00 00 01 00 7e 
00 25 94 00 00 00 00 00 00 00 00 00 00 01 00 7e 
00 25 ad 00 00 00 00 00 00 00 00 00 00 01 00 7e 
00 26 3b 00 00 00 00 00 00 00 00 00 00 01 00 7e 
00 26 28 00 00 00 00 00 00 00 00 00 00 01 00 7e 
00 25 e7 00 00 00 00 00 00 00 00 00 00 01 00 7e 
00 26 09 00 00 00 00 00 00 00 00 00 00 01 00 7e 
00 25 6a 00 00 00 00 00 00 00 00 00 00 01 00 7e 
00 26 22 00 00 00 00 00 00 00 00 00 00 01 00 7e 
00 25 ab 00 00 10 00 71 25 9c 24 00 00 8e 70 7e 
00 25 c6 00 00 01 00 00 00 fa 44 00 00 05 00 7e 
00 25 71 00 00 01 00 00 00 fa 44 00 00 05 00 7e 
00 25 76 00 00 01 00 00 00 fa 44 00 00 05 00 7e 
00 25 bf 00 00 01 00 00 00 fa 44 00 00 05 00 7e 
00 25 6a 00 00 01 00 00 00 fa 44 00 00 05 00 7e 
00 25 ed 00 00 01 00 00 00 fa 44 00 00 05 00 7e 
00 25 ae 00 00 01 00 00 00 fa 44 00 00 05 00 7e 
00 25 ca 00 00 01 00 00 00 fa 44 00 00 05 00 7e 
00 26 1a 00 00 01 00 00 00 fa 44 00 00 05 00 7e 
00 25 9b 00 00 01 00 00 00 fa 44 00 00 05 00 7e 
00 25 54 00 00 01 00 00 00 fa 44 00 00 05 00 7e 
00 25 67 00 00 01 00 00 00 fa 44 00 00 05 00 7e 
00 25 53 00 00 01 00 00 00 fa 44 00 00 05 00 7e 
00 25 38 00 00 01 00 00 00 fa 44 00 00 05 00 7e 
00 25 be 00 00 01 00 00 00 fa 44 00 00 05 00 7e 
00 25 4d 00 00 01 00 00 00 fa 44 00 00 05 00 7e 
00 25 09 00 00 01 00 00 00 fa 44 00 00 05 00 7e 
00 25 93 00 00 01 00 00 00 fa 44 00 00 05 00 7e 
00 25 a9 00 00 01 00 00 00 fa 44 00 00 05 00 7e 
00 25 d3 00 00 01 00 00 00 fa 44 00 00 05 00 7e 
00 25 b6 00 00 01 00 00 00 fa 44 00 00 05 00 7e 
00 25 ab 00 00 01 00 00 00 fa 44 00 00 05 00 7e 
00 25 ba 00 00 01 00 00 00 fa 44 00 00 05 00 7e 
00 25 b2 00 00 01 00 00 00 fa 44 00 00 05 00 7e 
00 25 b2 00 00 01 00 00 00 fa 44 00 00 05 00 7e 
00 25 a2 00 00 01 00 00 00 fa 44 00 00 05 00 7e 
00 25 b4 00 00 01 00 00 00 fa 44 00 00 05 00 7e 
00 25 e3 00 00 01 00 00 00 fa 44 00 00 05 00 7e 
00 25 4f 00 00 01 00 00 00 fa 44 00 00 05 00 7e 
00 25 7c 00 00 01 00 00 00 fa 44 00 00 05 00 7e 
00 25 3a 00 00 01 00 00 00 fa 44 00 00 05 00 7e 
00 25 6c 00 00 01 00 00 00 fa 44 00 00 05 00 7e 
00 25 c8 00 00 01 00 00 00 fa 44 00 00 05 00 7e 
00 25 ca 00 00 01 00 00 00 fa 44 00 00 05 00 7e 
00 25 69 00 00 01 00 00 00 fa 44 00 00 05 00 7e 
00 25 a1 00 00 01 00 00 00 fa 44 00 00 05 00 7e 
00 25 95 00 00 01 00 00 00 fa 44 00 00 05 00 7e 
00 25 e5 00 00 01 00 00 00 fa 44 00 00 05 00 7e 
00 25 31 00 00 01 00 00 00 fa 44 00 00 05 00 7e 
00 25 49 00 00 01 00 00 00 fa 44 00 00 05 00 7e 
00 25 80 00 00 01 00 00 00 fa 44 00 00 05 00 7e 
00 25 64 00 00 01 00 00 00 fa 44 00 00 05 00 7e 
00 25 8d 00 00 01 00 00 00 fa 44 00 00 05 00 7e 
00 25 80 00 00 01 00 00 00 fa 44 00 00 05 00 7e 
00 25 ce 00 00 01 00 00 00 fa 44 00 00 05 00 7e 
00 25 4e 00 00 01 00 00 00 fa 44 00 00 05 00 7e 
00 25 34 00 00 01 00 00 00 fa 44 00 00 05 00 7e 
00 25 4c 00 00 01 00 00 00 fa 44 00 00 05 00 7e 
00 25 7f 00 00 01 00 00 00 fa 44 00 00 05 00 7e 
00 25 98 00 00 01 00 00 00 fa 44 00 00 05 00 7e 
00 25 83 00 00 01 00 00 00 fa 44 00 00 05 00 7e 
00 25 8c 00 00 01 00 00 00 fa 44 00 00 05 00 7e 
00 25 d9 00 00 01 00 00 00 fa 44 00 00 05 00 7e 
00 26 07 00 00 01 00 00 00 fa 44 00 00 05 00 7e 
00 25 9c 00 00 01 00 00 00 fa 44 00 00 05 00 7e 
00 26 09 00 00 01 00 00 00 fa 44 00 00 05 00 7e 
00 25 cf 00 00 01 00 00 00 fa 44 00 00 05 00 7e 
00 25 c1 00 00 01 00 00 00 fa 44 00 00 05 00 7e 
00 25 c0 00 00 01 00 00 00 fa 44 00 00 05 00 7e 
00 25 dc 00 00 01 00 00 00 fa 44 00 00 05 00 7e 
00 26 08 00 00 01 00 00 00 fa 44 00 00 05 00 7e 
00 25 7f 00 00 01 00 00 00 fa 44 00 00 05 00 7e 
00 25 b7 00 00 01 00 00 00 fa 44 00 00 05 00 7e 
00 25 c2 00 00 01 00 00 00 fa 44 00 00 05 00 7e 
00 25 ac 00 00 01 00 00 00 fa 44 00 00 05 00 7e 
00 26 11 00 00 01 00 00 00 fa 44 00 00 05 00 7e 
00 26 54 00 00 01 00 00 00 fa 44 00 00 05 00 7e 
00 25 c8 00 00 01 00 00 00 fa 44 00 00 05 00 7e 
00 25 88 00 00 01 00 00 00 fa 44 00 00 05 00 7e 
00 25 ab 00 00 01 00 00 00 fa 44 00 00 05 00 7e 
00 25 e1 00 00 01 00 00 00 fa 44 00 00 05 00 7e 
00 26 1a 00 00 01 00 00 00 fa 44 00 00 05 00 7e 
00 25 a6 00 00 01 00 00 00 fa 44 00 00 05 00 7e 
00 25 66 00 00 01 00 00 00 fa 44 00 00 05 00 7e 
00 25 88 00 00 01 00 00 00 fa 44 00 00 05 00 7e 
00 25 6e 00 00 01 00 00 00 fa 44 00 00 05 00 7e 
00 25 43 00 00 01 00 00 00 fa 44 00 00 05 00 7e 
00 25 9d 00 00 01 00 00 00 fa 44 00 00 05 00 7e 
00 25 cd 00 00 01 00 00 00 fa 44 00 00 05 00 7e 
00 25 75 00 00 01 00 00 00 fa 44 00 00 05 00 7e 
00 25 88 00 00 01 00 00 00 fa 44 00 00 05 00 7e 
00 25 b3 00 00 01 00 00 00 fa 44 00 00 05 00 7e 
00 25 ad 00 00 01 00 00 00 fa 44 00 00 05 00 7e 
00 25 b6 00 00 01 00 00 00 fa 44 00 00 05 00 7e 
00 25 88 00 00 01 00 00 00 fa 44 00 00 05 00 7e 
00 25 a9 00 00 01 00 00 00 fa 44 00 00 05 00 7e 
00 25 bd 00 00 01 00 00 00 fa 44 00 00 05 00 7e 
00 26 00 00 00 01 00 00 00 fa 44 00 00 05 00 7e 
00 25 ba 00 00 01 00 00 00 fa 44 00 00 05 00 7e 
00 25 98 00 00 01 00 00 00 fa 44 00 00 05 00 7e 
00 25 9d 00 00 01 00 00 00 fa 44 00 00 05 00 7e 
00 25 e1 00 00 01 00 00 00 fa 44 00 00 05 00 7e 
00 25 b4 00 00 01 00 00 00 fa 44 00 00 05 00 7e 
00 25 89 00 00 01 00 00 00 fa 44 00 00 05 00 7e 
00 25 1c 00 00 01 00 00 00 fa 44 00 00 05 00 7e 
00 26 12 00 00 01 00 00 00 fa 44 00 00 05 00 7e 
00 25 d3 00 00 01 00 00 00 fa 44 00 00 05 00 7e 
00 25 c3 00 00 01 00 00 00 fa 44 00 00 05 00 7e 
00 26 09 00 00 01 00 00 00 fa 44 00 00 05 00 7e 
00 25 f4 00 00 01 00 00 00 fa 44 00 00 05 00 7e 
00 25 c0 00 00 01 00 00 00 fa 44 00 00 05 00 7e 
00 25 7e 00 00 01 00 00 00 fa 44 00 00 05 00 7e 
00 25 bc 00 00 01 00 00 00 fa 44 00 00 05 00 7e 
00 25 ae 00 00 01 00 00 00 fa 44 00 00 05 00 7e 
00 25 b7 00 00 01 00 00 00 fa 44 00 00 05 00 7e 
00 25 b7 00 00 01 00 00 00 fa 44 00 00 05 00 7e 
00 25 8e 00 00 01 00 00 00 fa 44 00 00 05 00 7e 
00 25 ed 00 00 01 00 00 00 fa 44 00 00 05 00 7e 
00 25 f6 00 00 01 00 00 00 fa 44 00 00 05 00 7e 
00 25 7d 00 00 01 00 00 00 fa 44 00 00 05 00 7e 
00 25 8b 00 00 01 00 00 00 fa 44 00 00 05 00 7e 
00 25 60 00 00 01 00 00 00 fa 44 00 00 05 00 7e 
00 25 af 00 00 01 00 00 00 fa 44 00 00 05 00 7e 
00 25 a8 00 00 01 00 00 00 fa 44 00 00 05 00 7e 
00 25 88 00 00 01 00 00 00 fa 44 00 00 05 00 7e 
00 24 f5 00 00 01 00 00 00 fa 44 00 00 05 00 7e 
00 25 d6 00 00 01 00 00 00 fa 44 00 00 05 00 7e 
00 25 7a 00 00 01 00 00 00 fa 44 00 00 05 00 7e 
00 25 94 00 00 01 00 00 00 fa 44 00 00 05 00 7e 
00 25 d2 00 00 01 00 00 00 fa 44 00 00 05 00 7e 
00 25 e5 00 00 01 00 00 00 fa 44 00 00 05 00 7e 
00 25 a0 00 00 01 00 00 00 fa 44 00 00 05 00 7e 
00 25 de 00 00 01 00 00 00 fa 44 00 00 05 00 7e 
00 25 f9 00 00 01 00 00 00 fa 44 00 00 05 00 7e 
00 25 c8 00 00 01 00 00 00 fa 44 00 00 05 00 7e 
00 25 f8 00 00 01 00 00 00 fa 44 00 00 05 00 7e 
00 25 b7 00 00 01 00 00 00 fa 44 00 00 05 00 7e 
00 25 f5 00 00 01 00 00 00 fa 44 00 00 05 00 7e 
00 25 f5 00 00 01 00 00 00 fa 44 00 00 05 00 7e 
00 26 1f 00 00 01 00 00 00 fa 44 00 00 05 00 7e 
00 25 6c 00 00 01 00 00 00 fa 44 00 00 05 00 7e 
00 26 15 00 00 01 00 00 00 fa 44 00 00 05 00 7e 
00 26 17 00 00 01 00 00 00 fa 44 00 00 05 00 7e 
00 26 09 00 00 01 00 00 00 fa 44 00 00 05 00 7e 
00 25 cd 00 00 01 00 00 00 fa 44 00 00 05 00 7e 
00 26 05 00 00 01 00 00 00 fa 44 00 00 05 00 7e 
00 25 bc 00 00 01 00 00 00 fa 44 00 00 05 00 7e 
00 25 f5 00 00 01 00 00 00 fa 44 00 00 05 00 7e 
00 25 f0 00 00 01 00 00 00 fa 44 00 00 05 00 7e 
00 25 ab 00 00 01 00 00 00 fa 44 00 00 05 00 7e 
00 26 01 00 00 01 00 00 00 fa 44 00 00 05 00 7e 
00 25 e8 00 00 01 00 00 00 fa 44 00 00 05 00 7e 
00 25 5a 00 00 01 00 00 00 fa 44 00 00 05 00 7e 
00 25 d6 00 00 01 00 00 00 fa 44 00 00 05 00 7e 
00 25 d8 00 00 01 00 00 00 fa 44 00 00 05 00 7e 
00 26 3e 00 00 01 00 00 00 fa 44 00 00 05 00 7e 
00 26 3e 00 00 01 00 00 00 fa 44 00 00 05 00 7e 
00 26 21 00 00 01 00 00 00 fa 44 00 00 05 00 7e 
00 26 03 00 00 01 00 00 00 fa 44 00 00 05 00 7e 
00 25 94 00 00 01 00 00 00 fa 44 00 00 05 00 7e 
00 25 e4 00 00 01 00 00 00 fa 44 00 00 05 00 7e 
00 25 b6 00 00 01 00 00 00 fa 44 00 00 05 00 7e 
00 25 bd 00 00 01 00 00 00 fa 44 00 00 05 00 7e 
00 25 d3 00 00 01 00 00 00 fa 44 00 00 05 00 7e 
00 26 1a 00 00 01 00 00 00 fa 44 00 00 05 00 7e 
00 25 9b 00 00 01 00 00 00 fa 44 00 00 05 00 7e 
00 25 c7 00 00 01 00 00 00 fa 44 00 00 05 00 7e 
00 25 b1 00 00 01 00 00 00 fa 44 00 00 05 00 7e 
00 26 32 00 00 01 00 00 00 fa 44 00 00 05 00 7e 
00 25 c4 00 00 01 00 00 00 fa 44 00 00 05 00 7e 
00 25 a6 00 00 01 00 00 00 fa 44 00 00 05 00 7e 
00 25 87 00 00 01 00 00 00 fa 44 00 00 05 00 7e 
00 25 a4 00 00 01 00 00 00 fa 44 00 00 05 00 7e 
00 25 73 00 00 01 00 00 00 fa 44 00 00 05 00 7e 
00 25 fd 00 00 01 00 00 00 fa 44 00 00 05 00 7e 
00 26 14 00 00 01 00 00 00 fa 44 00 00 05 00 7e 
00 26 0a 00 00 01 00 00 00 fa 44 00 00 05 00 7e 
00 26 1b 00 00 01 00 00 00 fa 44 00 00 05 00 7e 
00 25 e3 00 00 01 00 00 00 fa 44 00 00 05 00 7e 
00 25 c6 00 00 01 00 00 00 fa 44 00 00 05 00 7e 
00 25 fa 00 00 01 00 00 00 fa 44 00 00 05 00 7e 
00 25 c3 00 00 01 00 00 00 fa 44 00 00 05 00 7e 
00 26 0c 00 00 01 00 00 00 fa 44 00 00 05 00 7e 
00 25 d1 00 00 01 00 00 00 fa 44 00 00 05 00 7e 
00 25 5b 00 00 01 00 00 00 fa 44 00 00 05 00 7e 
00 25 d9 00 00 01 00 00 00 fa 44 00 00 05 00 7e 
00 25 6d 00 00 01 00 00 00 fa 44 00 00 05 00 7e 
00 25 41 00 00 01 00 00 00 fa 44 00 00 05 00 7e 
00 25 b9 00 00 01 00 00 00 fa 44 00 00 05 00 7e 
00 25 b2 00 00 01 00 00 00 fa 44 00 00 05 00 7e 
00 25 a8 00 00 01 00 00 00 fa 44 00 00 05 00 7e 
00 25 ae 00 00 01 00 00 00 fa 44 00 00 05 00 7e 
00 25 7a 00 00 01 00 00 00 fa 44 00 00 05 00 7e 
00 25 be 00 00 01 00 00 00 fa 44 00 00 05 00 7e 
00 26 06 00 00 01 00 00 00 fa 44 00 00 05 00 7e 
00 25 f3 00 00 01 00 00 00 fa 44 00 00 05 00 7e 
00 25 e0 00 00 01 00 00 00 fa 44 00 00 05 00 7e 
00 25 44 00 00 01 00 00 00 fa 44 00 00 05 00 7e 
00 25 f3 00 00 01 00 00 00 fa 44 00 00 05 00 7e 
00 25 ca 00 00 01 00 00 00 fa 44 00 00 05 00 7e 
00 25 d1 00 00 01 00 00 00 fa 44 00 00 05 00 7e 
00 25 bc 00 00 01 00 00 00 fa 44 00 00 05 00 7e 
00 26 4a 00 00 01 00 00 00 fa 44 00 00 05 00 7e 
00 25 aa 00 00 01 00 00 00 fa 44 00 00 05 00 7e 
00 25 d3 00 00 01 00 00 00 fa 44 00 00 05 00 7e 
00 25 79 00 00 01 00 00 00 fa 44 00 00 05 00 7e 
00 26 01 00 00 01 00 00 00 fa 44 00 00 05 00 7e 
00 25 61 00 00 01 00 00 00 fa 44 00 00 05 00 7e 
00 25 87 00 00 01 00 00 00 fa 44 00 00 05 00 7e 
00 26 16 00 00 01 00 00 00 fa 44 00 00 05 00 7e 
00 25 f2 00 00 01 00 00 00 fa 44 00 00 05 00 7e 
00 26 5c 00 00 01 00 00 00 fa 44 00 00 05 00 7e 
00 25 cf 00 00 01 00 00 00 fa 44 00 00 05 00 7e 
00 25 a0 00 00 01 00 00 00 fa 44 00 00 05 00 7e 
00 25 fd 00 00 01 00 00 00 fa 44 00 00 05 00 7e 
00 25 7d 00 00 01 00 00 00 fa 44 00 00 05 00 7e 
00 25 8f 00 00 01 00 00 00 fa 44 00 00 05 00 7e 
00 25 f3 00 00 01 00 00 00 fa 44 00 00 05 00 7e 
00 25 cd 00 00 01 00 00 00 fa 44 00 00 05 00 7e 
00 25 58 00 00 01 00 00 00 fa 44 00 00 05 00 7e 
00 26 10 00 00 01 00 00 00 fa 44 00 00 05 00 7e 
00 25 9d 00 00 01 00 00 00 fa 44 00 00 05 00 7e 
00 25 b0 00 00 01 00 00 00 fa 44 00 00 05 00 7e 
00 25 e3 00 00 01 00 00 00 fa 44 00 00 05 00 7e 
00 25 e1 00 00 01 00 00 00 fa 44 00 00 05 00 7e 
00 25 9e 00 00 01 00 00 00 fa 44 00 00 05 00 7e 
00 25 a8 00 00 01 00 00 00 fa 44 00 00 05 00 7e 
00 25 ef 00 00 01 00 00 00 fa 44 00 00 05 00 7e 
00 25 8e 00 00 01 00 00 00 fa 44 00 00 05 00 7e 
00 25 e0 00 00 01 00 00 00 fa 44 00 00 05 00 7e 
00 25 ca 00 00 01 00 00 00 fa 44 00 00 05 00 7e 
00 25 a1 00 00 01 00 00 00 fa 44 00 00 05 00 7e 
00 25 f5 00 00 01 00 00 00 fa 44 00 00 05 00 7e 
00 26 07 00 00 01 00 00 00 fa 44 00 00 05 00 7e 
00 25 68 00 00 01 00 00 00 fa 44 00 00 05 00 7e 
00 25 82 00 00 01 00 00 00 fa 44 00 00 05 00 7e 
00 25 b0 00 00 01 00 00 00 fa 44 00 00 05 00 7e 
00 25 ac 00 00 01 00 00 00 fa 44 00 00 05 00 7e 
00 25 b5 00 00 01 00 00 00 fa 44 00 00 05 00 7e 
00 25 e1 00 00 01 00 00 00 fa 44 00 00 05 00 7e 
00 25 c2 00 00 01 00 00 00 fa 44 00 00 05 00 7e 
00 26 00 00 00 01 00 00 00 fa 44 00 00 05 00 7e 
00 25 d6 00 00 01 00 00 00 fa 44 00 00 05 00 7e 
00 25 82 00 00 01 00 00 00 fa 44 00 00 05 00 7e 
00 25 8e 00 00 01 00 00 00 fa 44 00 00 05 00 7e 
00 25 41 00 00 01 00 00 00 fa 44 00 00 05 00 7e 
00 25 81 00 00 01 00 00 00 fa 44 00 00 05 00 7e 
00 25 dc 00 00 01 00 00 00 fa 44 00 00 05 00 7e 
00 25 77 00 00 01 00 00 00 fa 44 00 00 05 00 7e 
00 25 0b 00 00 01 00 00 00 fa 44 00 00 05 00 7e 
00 26 03 00 00 01 00 00 00 fa 44 00 00 05 00 7e 
00 25 be 00 00 01 00 00 00 fa 44 00 00 05 00 7e 
00 25 d8 00 00 01 00 00 00 fa 44 00 00 05 00 7e 
00 25 8c 00 00 01 00 00 00 fa 44 00 00 05 00 7e 
00 25 81 00 00 01 00 00 00 fa 44 00 00 05 00 7e 
00 25 79 00 00 01 00 00 00 fa 44 00 00 05 00 7e 
00 25 a3 00 00 01 00 00 00 fa 44 00 00 05 00 7e 
00 25 b3 00 00 01 00 00 00 fa 44 00 00 05 00 7e 
00 26 0a 00 00 01 00 00 00 fa 44 00 00 05 00 7e 
00 25 60 00 00 01 00 00 00 fa 44 00 00 05 00 7e 
00 25 3b 00 00 01 00 00 00 fa 44 00 00 05 00 7e 
00 25 7a 00 00 01 00 00 00 fa 44 00 00 05 00 7e 
00 25 fb 00 00 01 00 00 00 fa 44 00 00 05 00 7e 
00 25 14 00 00 01 00 00 00 fa 44 00 00 05 00 7e 
00 25 7a 00 00 01 00 00 00 fa 44 00 00 05 00 7e 
00 25 b0 00 00 01 00 00 00 fa 44 00 00 05 00 7e 
00 25 af 00 00 01 00 00 00 fa 44 00 00 05 00 7e 
00 25 b6 00 00 01 00 00 00 fa 44 00 00 05 00 7e 
00 25 b4 00 00 01 00 00 00 fa 44 00 00 05 00 7e 
00 25 b6 00 00 01 00 00 00 fa 44 00 00 05 00 7e 
00 25 dd 00 00 01 00 00 00 fa 44 00 00 05 00 7e 
00 25 28 00 00 01 00 00 00 fa 44 00 00 05 00 7e 
00 25 81 00 00 01 00 00 00 fa 44 00 00 05 00 7e 
00 25 aa 00 00 01 00 00 00 fa 44 00 00 05 00 7e 
00 25 a0 00 00 01 00 00 00 fa 44 00 00 05 00 7e 
00 25 a2 00 00 01 00 00 00 fa 44 00 00 05 00 7e 
00 25 59 00 00 01 00 00 00 fa 44 00 00 05 00 7e 
00 25 93 00 00 01 00 00 00 fa 44 00 00 05 00 7e 
00 25 ab 00 00 01 00 00 00 fa 44 00 00 05 00 7e 
00 25 a5 00 00 01 00 00 00 fa 44 00 00 05 00 7e 
00 25 6f 00 00 01 00 00 00 fa 44 00 00 05 00 7e 
00 25 78 00 00 01 00 00 00 fa 44 00 00 05 00 7e 
00 26 47 00 00 01 00 00 00 fa 44 00 00 05 00 7e 
00 25 98 00 00 01 00 00 00 fa 44 00 00 05 00 7e 
00 25 f0 00 00 01 00 00 00 fa 44 00 00 05 00 7e 
00 25 d6 00 00 01 00 00 00 fa 44 00 00 05 00 7e 
00 25 ae 00 00 01 00 00 00 fa 44 00 00 05 00 7e 
00 25 6f 00 00 01 00 00 00 fa 44 00 00 05 00 7e 
00 25 72 00 00 01 00 00 00 fa 44 00 00 05 00 7e 
00 26 06 00 00 01 00 00 00 fa 44 00 00 05 00 7e 
00 25 ed 00 00 01 00 00 00 fa 44 00 00 05 00 7e 
00 25 ae 00 00 01 00 00 00 fa 44 00 00 05 00 7e 
00 25 84 00 00 01 00 00 00 fa 44 00 00 05 00 7e 
00 25 df 00 00 01 00 00 00 fa 44 00 00 05 00 7e 
00 25 67 00 00 01 00 00 00 fa 44 00 00 05 00 7e 
00 25 6c 00 00 01 00 00 00 fa 44 00 00 05 00 7e 
00 25 c8 00 00 01 00 00 00 fa 44 00 00 05 00 7e 
00 25 a1 00 00 01 00 00 00 fa 44 00 00 05 00 7e 
00 25 ca 00 00 01 00 00 00 fa 44 00 00 05 00 7e 
00 25 cc 00 00 01 00 00 00 fa 44 00 00 05 00 7e 
00 25 b4 00 00 01 00 00 00 fa 44 00 00 05 00 7e 
00 25 88 00 00 01 00 00 00 fa 44 00 00 05 00 7e 
00 25 56 00 00 01 00 00 00 fa 44 00 00 05 00 7e 
00 25 59 00 00 01 00 00 00 fa 44 00 00 05 00 7e 
00 25 d3 00 00 01 00 00 00 fa 44 00 00 05 00 7e 
00 25 48 00 00 01 00 00 00 fa 44 00 00 05 00 7e 
00 25 97 00 00 01 00 00 00 fa 44 00 00 05 00 7e 
00 25 90 00 00 01 00 00 00 fa 44 00 00 05 00 7e 
00 25 d4 00 00 01 00 00 00 fa 44 00 00 05 00 7e 
00 25 ee 00 00 01 00 00 00 fa 44 00 00 05 00 7e 
00 25 71 00 00 01 00 00 00 fa 44 00 00 05 00 7e 
00 25 bc 00 00 01 00 00 00 fa 44 00 00 05 00 7e 
00 25 7b 00 00 01 00 00 00 fa 44 00 00 05 00 7e 
00 25 24 00 00 01 00 00 00 fa 44 00 00 05 00 7e 
00 25 82 00 00 01 00 00 00 fa 44 00 00 05 00 7e 
00 25 5e 00 00 01 00 00 00 fa 44 00 00 05 00 7e 
00 25 6e 00 00 01 00 00 00 fa 44 00 00 05 00 7e 
00 25 bb 00 00 01 00 00 00 fa 44 00 00 05 00 7e 
00 25 78 00 00 01 00 00 00 fa 44 00 00 05 00 7e 
00 26 4a 00 00 01 00 00 00 fa 44 00 00 05 00 7e 
00 25 71 00 00 01 00 00 00 fa 44 00 00 05 00 7e 
00 25 dd 00 00 01 00 00 00 fa 44 00 00 05 00 7e 
00 25 3c 00 00 01 00 00 00 fa 44 00 00 05 00 7e 
00 25 ee 00 00 01 00 00 00 fa 44 00 00 05 00 7e 
00 25 92 00 00 01 00 00 00 fa 44 00 00 05 00 7e 
00 25 a8 00 00 01 00 00 00 fa 44 00 00 05 00 7e 
00 25 f0 00 00 01 00 00 00 fa 44 00 00 05 00 7e 
00 25 e4 00 00 01 00 00 00 fa 44 00 00 05 00 7e 
00 25 25 00 00 01 00 00 00 fa 44 00 00 05 00 7e 
00 25 7b 00 00 01 00 00 00 fa 44 00 00 05 00 7e 
00 25 80 00 00 01 00 00 00 fa 44 00 00 05 00 7e 
00 25 4a 00 00 01 00 00 00 fa 44 00 00 05 00 7e 
00 25 ae 00 00 01 00 00 00 fa 44 00 00 05 00 7e 
00 25 45 00 00 01 00 00 00 fa 44 00 00 05 00 7e 
00 25 d8 00 00 01 00 00 00 fa 44 00 00 05 00 7e 
00 25 94 00 00 01 00 00 00 fa 44 00 00 05 00 7e 
00 25 b2 00 00 01 00 00 00 fa 44 00 00 05 00 7e 
00 25 c8 00 00 01 00 00 00 fa 44 00 00 05 00 7e 
00 25 a2 00 00 01 00 00 00 fa 44 00 00 05 00 7e 
00 25 db 00 00 01 00 00 00 fa 44 00 00 05 00 7e 
00 25 6b 00 00 01 00 00 00 fa 44 00 00 05 00 7e 
00 25 d0 00 00 01 00 00 00 fa 44 00 00 05 00 7e 
00 26 23 00 00 01 00 00 00 fa 44 00 00 05 00 7e 
00 25 a3 00 00 01 00 00 00 fa 44 00 00 05 00 7e 
00 25 b6 00 00 01 00 00 00 fa 44 00 00 05 00 7e 
00 25 9e 00 00 01 00 00 00 fa 44 00 00 05 00 7e 
00 25 48 00 00 01 00 00 00 fa 44 00 00 05 00 7e 
00 25 99 00 00 01 00 00 00 fa 44 00 00 05 00 7e 
00 25 9a 00 00 01 00 00 00 fa 44 00 00 05 00 7e 
00 25 fe 00 00 01 00 00 00 fa 44 00 00 05 00 7e 
00 25 c5 00 00 01 00 00 00 fa 44 00 00 05 00 7e 
00 25 ee 00 00 01 00 00 00 fa 44 00 00 05 00 7e 
00 26 26 00 00 01 00 00 00 fa 44 00 00 05 00 7e 
00 26 15 00 00 01 00 00 00 fa 44 00 00 05 00 7e 
00 25 a8 00 00 01 00 00 00 fa 44 00 00 05 00 7e 
00 25 e4 00 00 01 00 00 00 fa 44 00 00 05 00 7e 
00 25 43 00 00 01 00 00 00 fa 44 00 00 05 00 7e 
00 25 79 00 00 01 00 00 00 fa 44 00 00 05 00 7e 
00 25 92 00 00 01 00 00 00 fa 44 00 00 05 00 7e 
00 25 c1 00 00 01 00 00 00 fa 44 00 00 05 00 7e 
00 25 7d 00 00 01 00 00 00 fa 44 00 00 05 00 7e 
00 25 fe 00 00 01 00 00 00 fa 44 00 00 05 00 7e 
00 25 20 00 00 01 00 00 00 fa 44 00 00 05 00 7e 
00 25 8e 00 00 01 00 00 00 fa 44 00 00 05 00 7e 
00 26 2d 00 00 01 00 00 00 fa 44 00 00 05 00 7e 
00 26 03 00 00 01 00 00 00 fa 44 00 00 05 00 7e 
00 25 ff 00 00 01 00 00 00 fa 44 00 00 05 00 7e 
00 25 86 00 00 01 00 00 00 fa 44 00 00 05 00 7e 
00 26 1c 00 00 01 00 00 00 fa 44 00 00 05 00 7e 
00 25 9f 00 00 01 00 00 00 fa 44 00 00 05 00 7e 
00 25 d3 00 00 01 00 00 00 fa 44 00 00 05 00 7e 
00 25 d5 00 00 01 00 00 00 fa 44 00 00 05 00 7e 
00 25 83 00 00 01 00 00 00 fa 44 00 00 05 00 7e 
00 26 1d 00 00 01 00 00 00 fa 44 00 00 05 00 7e 
00 25 c6 00 00 01 00 00 00 fa 44 00 00 05 00 7e 
00 25 a2 00 00 01 00 00 00 fa 44 00 00 05 00 7e 
00 25 a6 00 00 01 00 00 00 fa 44 00 00 05 00 7e 
00 25 b6 00 00 01 00 00 00 fa 44 00 00 05 00 7e 
00 25 a2 00 00 01 00 00 00 fa 44 00 00 05 00 7e 
00 25 c4 00 00 01 00 00 00 fa 44 00 00 05 00 7e 
00 25 d1 00 00 01 00 00 00 fa 44 00 00 05 00 7e 
00 26 3c 00 00 01 00 00 00 fa 44 00 00 05 00 7e 
00 25 83 00 00 01 00 00 00 fa 44 00 00 05 00 7e 
00 25 c4 00 00 01 00 00 00 fa 44 00 00 05 00 7e 
00 25 c8 00 00 01 00 00 00 fa 44 00 00 05 00 7e 
00 25 b0 00 00 01 00 00 00 fa 44 00 00 05 00 7e 
00 25 cd 00 00 01 00 00 00 fa 44 00 00 05 00 7e 
00 25 44 00 00 01 00 00 00 fa 44 00 00 05 00 7e 
00 25 79 00 00 01 00 00 00 fa 44 00 00 05 00 7e 
00 25 36 00 00 01 00 00 00 fa 44 00 00 05 00 7e 
00 25 c5 00 00 01 00 00 00 fa 44 00 00 05 00 7e 
00 25 e3 00 00 01 00 00 00 fa 44 00 00 05 00 7e 
00 25 ea 00 00 01 00 00 00 fa 44 00 00 05 00 7e 
00 25 8b 00 00 01 00 00 00 fa 44 00 00 05 00 7e 
00 26 27 00 00 01 00 00 00 fa 44 00 00 05 00 7e 
00 25 d7 00 00 01 00 00 00 fa 44 00 00 05 00 7e 
00 25 d8 00 00 01 00 00 00 fa 44 00 00 05 00 7e 
00 26 11 00 00 01 00 00 00 fa 44 00 00 05 00 7e 
00 26 1c 00 00 01 00 00 00 fa 44 00 00 05 00 7e 
00 25 c1 00 00 01 00 00 00 fa 44 00 00 05 00 7e 
00 26 02 00 00 01 00 00 00 fa 44 00 00 05 00 7e 
00 25 f6 00 00 01 00 00 00 fa 44 00 00 05 00 7e 
00 26 04 00 00 01 00 00 00 fa 44 00 00 05 00 7e 
00 26 4f 00 00 01 00 00 00 fa 44 00 00 05 00 7e 
00 25 b4 00 00 01 00 00 00 fa 44 00 00 05 00 7e 
00 25 8a 00 00 01 00 00 00 fa 44 00 00 05 00 7e 
00 25 b4 00 00 01 00 00 00 fa 44 00 00 05 00 7e 
00 26 14 00 00 01 00 00 00 fa 44 00 00 05 00 7e 
00 25 dd 00 00 01 00 00 00 fa 44 00 00 05 00 7e 
00 26 00 00 00 01 00 00 00 fa 44 00 00 05 00 7e 
00 26 24 00 00 01 00 00 00 fa 44 00 00 05 00 7e 
00 25 b9 00 00 01 00 00 00 fa 44 00 00 05 00 7e 
00 25 ee 00 00 01 00 00 00 fa 44 00 00 05 00 7e 
00 25 88 00 00 01 00 00 00 fa 44 00 00 05 00 7e 
00 25 be 00 00 01 00 00 00 fa 44 00 00 05 00 7e 
00 25 7c 00 00 01 00 00 00 fa 44 00 00 05 00 7e 
00 25 69 00 00 01 00 00 00 fa 44 00 00 05 00 7e 
00 25 c0 00 00 01 00 00 00 fa 44 00 00 05 00 7e 
00 26 2b 00 00 01 00 00 00 fa 44 00 00 05 00 7e 
00 25 6d 00 00 01 00 00 00 fa 44 00 00 05 00 7e 
00 26 06 00 00 01 00 00 00 fa 44 00 00 05 00 7e 
00 25 ab 00 00 01 00 00 00 fa 44 00 00 05 00 7e 
00 25 ea 00 00 01 00 00 00 fa 44 00 00 05 00 7e 
00 25 8f 00 00 01 00 00 00 fa 44 00 00 05 00 7e 
00 26 21 00 00 01 00 00 00 fa 44 00 00 05 00 7e 
00 25 5b 00 00 01 00 00 00 fa 44 00 00 05 00 7e 
00 25 e0 00 00 01 00 00 00 fa 44 00 00 05 00 7e 
00 25 cf 00 00 01 00 00 00 fa 44 00 00 05 00 7e 
00 25 cc 00 00 01 00 00 00 fa 44 00 00 05 00 7e 
00 25 8b 00 00 01 00 00 00 fa 44 00 00 05 00 7e 
00 26 02 00 00 01 00 00 00 fa 44 00 00 05 00 7e 
00 25 ef 00 00 01 00 00 00 fa 44 00 00 05 00 7e 
00 26 60 00 00 01 00 00 00 fa 44 00 00 05 00 7e 
00 25 d0 00 00 01 00 00 00 fa 44 00 00 05 00 7e 
00 25 7b 00 00 01 00 00 00 fa 44 00 00 05 00 7e 
00 25 e1 00 00 01 00 00 00 fa 44 00 00 05 00 7e 
00 25 d5 00 00 01 00 00 00 fa 44 00 00 05 00 7e 
00 25 d5 00 00 01 00 00 00 fa 44 00 00 05 00 7e 
00 25 5e 00 00 01 00 00 00 fa 44 00 00 05 00 7e 
00 25 9e 00 00 01 00 00 00 fa 44 00 00 05 00 7e 
00 25 e3 00 00 01 00 00 00 fa 44 00 00 05 00 7e 
00 25 b3 00 00 01 00 00 00 fa 44 00 00 05 00 7e 
00 25 d3 00 00 01 00 00 00 fa 44 00 00 05 00 7e 
00 25 d6 00 00 01 00 00 00 fa 44 00 00 05 00 7e 
00 25 bb 00 00 01 00 00 00 fa 44 00 00 05 00 7e 
00 25 e4 00 00 01 00 00 00 fa 44 00 00 05 00 7e 
00 25 dc 00 00 01 00 00 00 fa 44 00 00 05 00 7e 
00 25 cb 00 00 01 00 00 00 fa 44 00 00 05 00 7e 
00 26 09 00 00 01 00 00 00 fa 44 00 00 05 00 7e 
00 25 ed 00 00 01 00 00 00 fa 44 00 00 05 00 7e 
00 26 3d 00 00 01 00 00 00 fa 44 00 00 05 00 7e 
00 25 c6 00 00 01 00 00 00 fa 44 00 00 05 00 7e 
00 26 3b 00 00 01 00 00 00 fa 44 00 00 05 00 7e 
00 25 c2 00 00 01 00 00 00 fa 44 00 00 05 00 7e 
00 25 dd 00 00 01 00 00 00 fa 44 00 00 05 00 7e 
00 25 cc 00 00 01 00 00 00 fa 44 00 00 05 00 7e 
00 25 70 00 00 01 00 00 00 fa 44 00 00 05 00 7e 
00 25 98 00 00 01 00 00 00 fa 44 00 00 05 00 7e 
00 26 1b 00 00 01 00 00 00 fa 44 00 00 05 00 7e 
00 25 6d 00 00 01 00 00 00 fa 44 00 00 05 00 7e 
00 25 a8 00 00 01 00 00 00 fa 44 00 00 05 00 7e 
00 25 ef 00 00 01 00 00 00 fa 44 00 00 05 00 7e 
00 25 b3 00 00 01 00 00 00 fa 44 00 00 05 00 7e 
00 25 a9 00 00 01 00 00 00 fa 44 00 00 05 00 7e 
00 25 fb 00 00 01 00 00 00 fa 44 00 00 05 00 7e 
00 25 ad 00 00 01 00 00 00 fa 44 00 00 05 00 7e 
00 25 ba 00 00 01 00 00 00 fa 44 00 00 05 00 7e 
00 26 01 00 00 01 00 00 00 fa 44 00 00 05 00 7e 
00 25 db 00 00 01 00 00 00 fa 44 00 00 05 00 7e 
00 26 10 00 00 01 00 00 00 fa 44 00 00 05 00 7e 
00 25 d7 00 00 01 00 00 00 fa 44 00 00 05 00 7e 
00 25 be 00 00 01 00 00 00 fa 44 00 00 05 00 7e 
00 25 8e 00 00 01 00 00 00 fa 44 00 00 05 00 7e 
00 25 c6 00 00 01 00 00 00 fa 44 00 00 05 00 7e 
00 25 df 00 00 01 00 00 00 fa 44 00 00 05 00 7e 
00 25 bd 00 00 01 00 00 00 fa 44 00 00 05 00 7e 
00 25 c0 00 00 01 00 00 00 fa 44 00 00 05 00 7e 
00 26 33 00 00 01 00 00 00 fa 44 00 00 05 00 7e 
00 26 86 00 00 01 00 00 00 fa 44 00 00 05 00 7e 
00 26 7c 00 00 01 00 00 00 fa 44 00 00 05 00 7e 
00 25 dd 00 00 01 00 00 00 fa 44 00 00 05 00 7e 
00 25 6a 00 00 01 00 00 00 fa 44 00 00 05 00 7e 
00 25 c8 00 00 01 00 00 00 fa 44 00 00 05 00 7e 
00 25 c2 00 00 01 00 00 00 fa 44 00 00 05 00 7e 
00 25 81 00 00 01 00 00 00 fa 44 00 00 05 00 7e 
00 25 84 00 00 01 00 00 00 fa 44 00 00 05 00 7e 
00 25 bb 00 00 01 00 00 00 fa 44 00 00 05 00 7e 
00 25 e7 00 00 01 00 00 00 fa 44 00 00 05 00 7e 
00 25 83 00 00 01 00 00 00 fa 44 00 00 05 00 7e 
00 25 8c 00 00 01 00 00 00 fa 44 00 00 05 00 7e 
00 25 7a 00 00 01 00 00 00 fa 44 00 00 05 00 7e 
00 25 c8 00 00 01 00 00 00 fa 44 00 00 05 00 7e 
00 25 a9 00 00 01 00 00 00 fa 44 00 00 05 00 7e 
00 25 ab 00 00 01 00 00 00 fa 44 00 00 05 00 7e 
00 25 ae 00 00 01 00 00 00 fa 44 00 00 05 00 7e 
00 25 db 00 00 01 00 00 00 fa 44 00 00 05 00 7e 
00 25 f5 00 00 01 00 00 00 fa 44 00 00 05 00 7e 
00 25 e4 00 00 01 00 00 00 fa 44 00 00 05 00 7e 
00 26 23 00 00 01 00 00 00 fa 44 00 00 05 00 7e 
00 25 f9 00 00 01 00 00 00 fa 44 00 00 05 00 7e 
00 26 64 00 00 01 00 00 00 fa 44 00 00 05 00 7e 
00 25 bd 00 00 01 00 00 00 fa 44 00 00 05 00 7e 
00 25 bd 00 00 01 00 00 00 fa 44 00 00 05 00 7e 
00 26 02 00 00 01 00 00 00 fa 44 00 00 05 00 7e 
00 25 d7 00 00 01 00 00 00 fa 44 00 00 05 00 7e 
00 26 3f 00 00 01 00 00 00 fa 44 00 00 05 00 7e 
00 26 2e 00 00 01 00 00 00 fa 44 00 00 05 00 7e 
00 26 45 00 00 01 00 00 00 fa 44 00 00 05 00 7e 
00 25 9d 00 00 01 00 00 00 fa 44 00 00 05 00 7e 
00 25 e1 00 00 01 00 00 00 fa 44 00 00 05 00 7e 
00 25 e5 00 00 01 00 00 00 fa 44 00 00 05 00 7e 
00 25 6b 00 00 01 00 00 00 fa 44 00 00 05 00 7e 
00 25 dc 00 00 01 00 00 00 fa 44 00 00 05 00 7e 
00 26 37 00 00 01 00 00 00 fa 44 00 00 05 00 7e 
00 25 c1 00 00 01 00 00 00 fa 44 00 00 05 00 7e 
00 25 e6 00 00 01 00 00 00 fa 44 00 00 05 00 7e 
00 25 7d 00 00 01 00 00 00 fa 44 00 00 05 00 7e 
00 25 6e 00 00 01 00 00 00 fa 44 00 00 05 00 7e 
00 25 ec 00 00 01 00 00 00 fa 44 00 00 05 00 7e 
00 26 39 00 00 01 00 00 00 fa 44 00 00 05 00 7e 
00 25 c2 00 00 01 00 00 00 fa 44 00 00 05 00 7e 
00 26 2d 00 00 01 00 00 00 fa 44 00 00 05 00 7e 
00 25 bb 00 00 01 00 00 00 fa 44 00 00 05 00 7e 
00 25 7a 00 00 01 00 00 00 fa 44 00 00 05 00 7e 
00 26 10 00 00 01 00 00 00 fa 44 00 00 05 00 7e 
00 26 07 00 00 01 00 00 00 fa 44 00 00 05 00 7e 
00 25 b6 00 00 01 00 00 00 fa 44 00 00 05 00 7e 
00 25 ac 00 00 01 00 00 00 fa 44 00 00 05 00 7e 
00 25 de 00 00 01 00 00 00 fa 44 00 00 05 00 7e 
00 25 de 00 00 01 00 00 00 fa 44 00 00 05 00 7e 
00 25 93 00 00 01 00 00 00 fa 44 00 00 05 00 7e 
00 25 48 00 00 01 00 00 00 fa 44 00 00 05 00 7e 
00 25 cf 00 00 01 00 00 00 fa 44 00 00 05 00 7e 
00 25 ba 00 00 01 00 00 00 fa 44 00 00 05 00 7e 
00 25 ec 00 00 01 00 00 00 fa 44 00 00 05 00 7e 
00 25 a1 00 00 01 00 00 00 fa 44 00 00 05 00 7e 
00 25 f8 00 00 01 00 00 00 fa 44 00 00 05 00 7e 
00 25 f4 00 00 01 00 00 00 fa 44 00 00 05 00 7e 
00 26 07 00 00 01 00 00 00 fa 44 00 00 05 00 7e 
00 25 af 00 00 01 00 00 00 fa 44 00 00 05 00 7e 
00 26 16 00 00 01 00 00 00 fa 44 00 00 05 00 7e 
00 25 e1 00 00 01 00 00 00 fa 44 00 00 05 00 7e 
00 26 46 00 00 01 00 00 00 fa 44 00 00 05 00 7e 
