1f ff 19 00 68 52 5f 00 00 00 00 01 00 01 00 00 
1f ff 19 00 68 52 5f 00 00 00 00 01 00 01 00 00 
1f ff 19 00 68 52 5f 00 00 00 00 01 00 01 00 81 
1f ff 19 00 68 52 5f 00 00 00 00 01 00 01 00 81 
1f ff 19 00 68 52 5f 00 00 00 00 01 00 01 00 81 
1f ff 19 00 68 52 5f 00 00 00 00 01 00 01 00 81 
1f ff 19 00 68 52 5f 00 00 00 00 01 00 01 00 81 
1f ff 19 00 68 52 5f 00 00 00 00 01 00 01 00 81 
1f ff 19 00 68 52 5f 00 00 00 00 01 00 01 00 81 
1f ff 19 00 68 52 5f 00 00 00 00 01 00 01 00 81 
1f ff 19 00 68 52 5f 00 00 00 00 01 00 01 00 81 
1f ff 19 00 68 52 5f 00 00 00 00 01 00 01 00 81 
1f ff 19 00 68 52 5f 00 00 00 00 01 00 01 00 81 
1f ff 19 00 68 52 5f 00 00 00 00 01 00 01 00 81 
1f ff 19 00 68 52 5f 00 00 00 00 01 00 01 00 81 
1f ff 19 00 68 52 5f 00 00 00 00 01 00 01 00 81 
1f ff 19 00 68 52 5f 00 00 00 00 01 00 01 00 81 
1f ff 19 00 68 52 5f 00 00 00 00 01 00 01 00 81 
1f ff 19 00 68 52 5f 00 00 00 00 01 00 01 00 81 
1f ff 19 00 68 52 5f 00 00 00 00 01 00 01 00 81 
1f ff 19 00 68 52 5f 00 00 00 00 01 00 01 00 81 
1f ff 19 00 68 52 5f 00 00 00 00 01 00 01 00 81 
1f ff 19 00 68 52 5f 00 00 00 00 01 00 01 00 81 
1f ff 19 00 68 52 5f 00 00 00 00 01 00 01 00 81 
1f ff 19 00 68 52 5f 00 00 00 00 01 00 01 00 81 
1f ff 19 00 68 52 5f 00 00 00 00 01 00 01 00 81 
1f ff 19 00 68 52 5f 00 00 00 00 01 00 01 00 81 
1f ff 19 00 68 52 5f 00 00 00 00 01 00 01 00 81 
1f ff 19 00 68 52 5f 00 00 00 00 01 00 01 00 81 
1f ff 19 00 68 52 5f 00 00 00 00 01 00 01 00 81 
1f ff 19 00 68 52 5f 00 00 00 00 01 00 01 00 81 
1f ff 19 00 68 52 5f 00 00 00 00 01 00 01 00 81 
1f ff 19 00 68 52 5f 00 00 00 00 01 00 01 00 81 
1f ff 19 00 68 52 5f 00 00 00 00 01 00 01 00 81 
1f ff 19 00 68 52 5f 00 00 00 00 01 00 01 00 81 
1f ff 19 00 68 52 5f 00 00 00 00 01 00 01 00 81 
1f ff 19 00 68 52 5f 00 00 00 00 01 00 01 00 81 
1f ff 19 00 68 52 5f 00 00 00 00 01 00 01 00 81 
1f ff 19 00 68 52 5f 00 00 00 00 01 00 01 00 81 
1f ff 19 00 68 52 5f 00 00 00 00 01 00 01 00 81 
1f ff 19 00 68 52 5f 00 00 00 00 01 00 01 00 81 
1f ff 19 00 68 52 5f 00 00 00 00 01 00 01 00 81 
1f ff 19 00 68 52 5f 00 00 00 00 01 00 01 00 81 
1f ff 19 00 68 52 5f 00 00 00 00 01 00 01 00 81 
1f ff 19 00 68 52 5f 00 00 00 00 01 00 01 00 81 
1f ff 19 00 68 52 5f 00 00 00 00 01 00 01 00 81 
1f ff 19 00 68 52 5f 00 00 00 00 01 00 01 00 81 
1f ff 19 00 68 52 5f 00 00 00 00 01 00 01 00 81 
1f ff 19 00 68 52 5f 00 00 00 00 01 00 01 00 81 
1f ff 19 00 68 52 5f 00 00 00 00 01 00 01 00 81 
1f ff 19 00 68 52 5f 00 00 00 00 01 00 01 00 81 
1f ff 19 00 68 52 5f 00 00 00 00 01 00 01 00 81 
1f ff 19 00 68 52 5f 00 00 00 00 01 00 01 00 81 
1f ff 19 00 68 52 5f 00 00 00 00 01 00 01 00 81 
1f ff 19 00 68 52 5f 00 00 00 00 01 00 01 00 81 
1f ff 19 00 68 52 5f 00 00 00 00 01 00 01 00 81 
1f ff 19 00 68 52 5f 00 00 00 00 01 00 01 00 81 
1f ff 19 00 68 52 5f 00 00 00 00 01 00 01 00 81 
1f ff 19 00 68 52 5f 00 00 00 00 01 00 01 00 81 
15 27 3a 00 68 52 5f 00 00 00 00 01 00 01 00 81 
15 0a 09 00 68 52 5f 00 00 00 00 01 00 01 00 81 
15 0b 50 00 68 52 5f 00 00 00 00 01 00 01 00 81 
15 0c 0b 00 68 52 5f 00 00 00 00 01 00 01 00 81 
15 0d 0e 00 68 52 5f 00 00 00 00 01 00 01 00 81 
15 0e 32 00 68 52 5f 00 00 00 00 01 00 01 00 81 
15 0f c5 00 68 52 5f 00 00 00 00 01 00 01 00 81 
15 11 94 00 68 52 5f 00 00 00 00 01 00 01 00 81 
15 12 bc 00 68 52 5f 00 00 00 00 01 00 01 00 81 
15 13 b1 00 68 52 5f 00 00 00 00 01 00 01 00 81 
15 15 60 00 68 52 5f 00 00 00 00 01 00 01 00 81 
15 15 e7 00 68 52 5f 00 00 00 00 01 00 01 00 81 
15 16 4c 00 68 52 5f 00 00 00 00 01 00 01 00 81 
15 15 df 00 68 52 5f 00 00 00 00 01 00 01 00 81 
15 15 c3 00 68 52 5f 00 00 00 00 01 00 01 00 81 
15 14 62 00 68 52 5f 00 00 00 00 01 00 01 00 81 
15 13 8f 00 68 52 5f 00 00 00 00 01 00 01 00 81 
15 12 46 00 68 52 5f 00 00 00 00 01 00 01 00 81 
15 10 e7 00 68 52 5f 00 00 00 00 01 00 01 00 81 
0a 9b 45 00 68 52 5f 00 00 00 00 01 00 01 00 81 
0a 8f bd 00 68 52 5f 00 00 00 00 01 00 01 00 81 
0a 8d a4 00 68 52 5f 00 00 00 00 01 00 01 00 81 
0a 88 28 00 68 52 5f 00 00 00 00 01 00 01 00 81 
0a 7f 52 00 68 52 5f 00 00 00 00 01 00 01 00 81 
0a 73 58 00 68 52 5f 00 00 00 00 01 00 01 00 81 
0a 63 c1 00 68 52 5f 00 00 00 00 01 00 01 00 81 
0a 4b fc 00 68 52 5f 00 00 00 00 01 00 01 00 81 
0a 2c 8a 00 68 52 5f 00 00 00 00 01 00 01 00 81 
09 fc 8a 00 68 52 5f 00 00 00 00 01 00 01 00 81 
09 ac 1a 00 68 52 5f 00 00 00 00 01 00 01 00 81 
09 29 15 00 68 52 5f 00 00 00 00 01 00 01 00 81 
08 88 f5 00 68 52 5f 00 00 00 00 01 00 01 00 81 
07 dc 98 00 68 52 5f 00 00 00 00 01 00 01 00 81 
07 33 06 00 68 52 5f 00 00 00 00 01 00 01 00 81 
06 ac 65 00 68 52 5f 00 00 00 00 01 00 01 00 81 
06 32 e7 00 68 52 5f 00 00 00 00 01 00 01 00 81 
05 a6 5f 00 68 52 5f 00 00 00 00 01 00 01 00 81 
05 14 c0 00 68 52 5f 00 00 00 00 01 00 01 00 81 
06 21 46 00 68 52 5f 00 00 00 00 01 00 01 00 81 
06 91 44 00 68 52 5f 00 00 00 00 01 00 01 00 81 
08 17 ac 00 68 52 5f 00 00 00 00 01 00 01 00 81 
0b b6 71 00 68 52 5f 00 00 00 00 01 00 01 00 81 
0f 62 4a 00 68 52 5f 00 00 00 00 01 00 01 00 81 
11 fa 5e 00 68 52 5f 00 00 00 00 01 00 01 00 81 
12 d5 0e 00 68 52 5f 00 00 00 00 01 00 01 00 81 
13 3d 3f 00 68 52 5f 00 00 00 00 01 00 01 00 81 
13 7c c8 00 68 52 5f 00 00 00 00 01 00 01 00 81 
13 b4 03 00 68 52 5f 00 00 00 00 01 00 01 00 81 
14 00 24 00 68 52 5f 00 00 00 00 01 00 01 00 81 
14 5d 7e 00 68 52 5f 00 00 00 00 01 00 01 00 81 
14 a4 f4 00 68 52 5f 00 00 00 00 01 00 01 00 81 
14 db ea 00 68 52 5f 00 00 00 00 01 00 01 00 81 
15 0d 01 00 68 52 5f 00 00 00 00 01 00 01 00 81 
15 3e 6d 00 68 52 5f 00 00 00 00 01 00 01 00 81 
15 6c 17 00 68 52 5f 00 00 00 00 01 00 01 00 81 
15 7e 5b 00 68 52 5f 00 00 00 00 01 00 01 00 81 
15 68 df 00 68 52 5f 00 00 00 00 01 00 01 00 81 
15 c1 10 00 68 52 5f 00 00 00 00 01 00 01 00 81 
14 ca a8 00 68 52 5f 00 00 00 00 01 00 01 00 81 
14 e1 51 00 68 52 5f 00 00 00 00 01 00 01 00 81 
15 2c b9 00 68 52 5f 00 00 00 00 01 00 01 00 81 
15 68 b1 00 68 52 5f 00 00 00 00 01 00 01 00 81 
15 8e 98 00 68 52 5f 00 00 00 00 01 00 01 00 81 
15 9e f7 00 68 52 5f 00 00 00 00 01 00 01 00 81 
15 af 0e 00 68 52 5f 00 00 00 00 01 00 01 00 81 
15 c5 27 00 68 52 5f 00 00 00 00 01 00 01 00 81 
15 dc 67 00 68 52 5f 00 00 00 00 01 00 01 00 81 
15 f0 b9 00 68 52 5f 00 00 00 00 01 00 01 00 81 
16 07 41 00 68 52 5f 00 00 00 00 01 00 01 00 81 
16 19 68 00 68 52 5f 00 00 00 00 01 00 01 00 81 
16 2c 66 00 68 52 5f 00 00 00 00 01 00 01 00 81 
16 3d 91 00 68 52 5f 00 00 00 00 01 00 01 00 81 
16 4e f1 00 68 52 5f 00 00 00 00 01 00 01 00 81 
16 60 5b 00 68 52 5f 00 00 00 00 01 00 01 00 81 
16 73 06 00 68 52 5f 00 00 00 00 01 00 01 00 81 
16 73 c7 00 68 52 5f 00 00 00 00 01 00 01 00 81 
16 81 5c 00 68 52 5f 00 00 00 00 01 00 01 00 81 
16 7d 5c 00 68 52 5f 00 00 00 00 01 00 01 00 81 
16 6f 71 00 68 52 5f 00 00 00 00 01 00 01 00 81 
16 7f 75 00 68 52 5f 00 00 00 00 01 00 01 00 81 
16 91 18 00 68 52 5f 00 00 00 00 01 00 01 00 81 
16 9c 31 00 68 52 5f 00 00 00 00 01 00 01 00 81 
16 ab 32 00 68 52 5f 00 00 00 00 01 00 01 00 81 
16 b7 68 00 68 52 5f 00 00 00 00 01 00 01 00 81 
16 ca bf 00 68 52 5f 00 00 00 00 01 00 01 00 81 
16 d8 00 00 68 52 5f 00 00 00 00 01 00 01 00 81 
16 e3 43 00 68 52 5f 00 00 00 00 01 00 01 00 81 
16 ea f2 00 68 52 5f 00 00 00 00 01 00 01 00 81 
16 f6 99 00 68 52 5f 00 00 00 00 01 00 01 00 81 
16 f9 1c 00 68 52 5f 00 00 00 00 01 00 01 00 81 
16 fc 49 00 68 52 5f 00 00 00 00 01 00 01 00 81 
17 06 00 00 68 52 5f 00 00 00 00 01 00 01 00 81 
17 29 2e 00 68 52 5f 00 00 00 00 01 00 01 00 81 
17 2f e5 00 68 52 5f 00 00 00 00 01 00 01 00 81 
17 2d c4 00 68 52 5f 00 00 00 00 01 00 01 00 81 
17 10 62 00 68 52 5f 00 00 00 00 01 00 01 00 81 
16 fc 72 00 68 52 5f 00 00 00 00 01 00 01 00 81 
16 f1 06 00 68 52 5f 00 00 00 00 01 00 01 00 81 
16 ef 12 00 68 52 5f 00 00 00 00 01 00 01 00 81 
16 f6 49 00 68 52 5f 00 00 00 00 01 00 01 00 81 
17 09 42 00 68 52 5f 00 00 00 00 01 00 01 00 81 
17 1b a7 00 68 52 5f 00 00 00 00 01 00 01 00 81 
17 36 d1 00 68 52 5f 00 00 00 00 01 00 01 00 81 
17 49 b7 00 68 52 5f 00 00 00 00 01 00 01 00 81 
17 6b 41 00 68 52 5f 00 00 00 00 01 00 01 00 81 
17 89 f0 00 68 52 5f 00 00 00 00 01 00 01 00 81 
17 73 8d 00 68 52 5f 00 00 00 00 01 00 01 00 81 
17 57 fb 00 68 52 5f 00 00 00 00 01 00 01 00 81 
17 34 66 00 68 52 5f 00 00 00 00 01 00 01 00 81 
17 41 d8 00 68 52 5f 00 00 00 00 01 00 01 00 81 
17 bc 4d 00 68 52 5f 00 00 00 00 01 00 01 00 81 
17 9c c1 00 68 52 5f 00 00 00 00 01 00 01 00 81 
17 99 4d 00 68 52 5f 00 00 00 00 01 00 01 00 81 
17 c3 75 00 68 52 5f 00 00 00 00 01 00 01 00 81 
17 c6 5e 00 68 52 5f 00 00 00 00 01 00 01 00 81 
17 ee 97 00 68 52 5f 00 00 00 00 01 00 01 00 81 
18 0c 16 00 68 52 5f 00 00 00 00 01 00 01 00 81 
18 0e 21 00 68 52 5f 00 00 00 00 01 00 01 00 81 
18 04 f5 00 68 52 5f 00 00 00 00 01 00 01 00 81 
17 f5 28 00 68 52 5f 00 00 00 00 01 00 01 00 81 
17 ec e2 00 68 52 5f 00 00 00 00 01 00 01 00 81 
17 ef b4 00 68 52 5f 00 00 00 00 01 00 01 00 81 
17 f7 cf 00 68 52 5f 00 00 00 00 01 00 01 00 81 
18 06 8a 00 68 52 5f 00 00 00 00 01 00 01 00 81 
18 1d 2e 00 68 52 5f 00 00 00 00 01 00 01 00 81 
18 30 31 00 68 52 5f 00 00 00 00 01 00 01 00 81 
18 4c 06 00 68 52 5f 00 00 00 00 01 00 01 00 81 
18 5b 30 00 68 52 5f 00 00 00 00 01 00 01 00 81 
18 60 7e 00 68 52 5f 00 00 00 00 01 00 01 00 81 
18 5e 0a 00 68 52 5f 00 00 00 00 01 00 01 00 81 
18 5b 5a 00 68 52 5f 00 00 00 00 01 00 01 00 81 
18 53 59 00 68 52 5f 00 00 00 00 01 00 01 00 81 
18 3f 72 00 68 52 5f 00 00 00 00 01 00 01 00 81 
18 20 95 00 68 52 5f 00 00 00 00 01 00 01 00 81 
18 00 06 00 68 52 5f 00 00 00 00 01 00 01 00 81 
17 ea ac 00 68 52 5f 00 00 00 00 01 00 01 00 81 
18 03 20 00 68 52 5f 00 00 00 00 01 00 01 00 81 
18 2a 4a 00 68 52 5f 00 00 00 00 01 00 01 00 81 
18 80 29 00 68 52 5f 00 00 00 00 01 00 01 00 81 
18 cb 5d 00 68 52 5f 00 00 00 00 01 00 01 00 81 
19 98 f6 00 68 52 5f 00 00 00 00 01 00 01 00 81 
1a 6c 38 00 68 52 5f 00 00 00 00 01 00 01 00 81 
1a 70 ed 00 68 52 5f 00 00 00 00 01 00 01 00 81 
1a 80 b8 00 68 52 5f 00 00 00 00 01 00 01 00 81 
1a 71 67 00 68 52 5f 00 00 00 00 01 00 01 00 81 
1a 93 1d 00 68 52 5f 00 00 00 00 01 00 01 00 81 
1a f0 58 00 68 52 5f 00 00 00 00 01 00 01 00 81 
1b 85 94 00 68 52 5f 00 00 00 00 01 00 01 00 81 
1b ed fd 00 68 52 5f 00 00 00 00 01 00 01 00 81 
1b c1 9b 00 68 52 5f 00 00 00 00 01 00 01 00 81 
1a ff 86 00 68 52 5f 00 00 00 00 01 00 01 00 81 
19 a0 b2 00 68 52 5f 00 00 00 00 01 00 01 00 81 
17 b6 88 00 68 52 5f 00 00 00 00 01 00 01 00 81 
15 81 74 00 68 52 5f 00 00 00 00 01 00 01 00 81 
12 e0 ea 00 68 52 5f 00 00 00 00 01 00 01 00 81 
10 9d 26 00 68 52 5f 00 00 00 00 01 00 01 00 81 
0e 5a 26 00 68 52 5f 00 00 00 00 01 00 01 00 81 
0c 59 42 00 68 52 5f 00 00 00 00 01 00 01 00 81 
0a c8 c8 00 68 52 5f 00 00 00 00 01 00 01 00 81 
09 cf 43 00 68 52 5f 00 00 00 00 01 00 01 00 81 
09 33 a5 00 68 52 5f 00 00 00 00 01 00 01 00 81 
08 99 a5 00 68 52 5f 00 00 00 00 01 00 01 00 81 
07 e6 59 00 68 52 5f 00 00 00 00 01 00 01 00 81 
07 25 0e 00 68 52 5f 00 00 00 00 01 00 01 00 81 
06 9e 01 00 68 52 5f 00 00 00 00 01 00 01 00 81 
06 6a fc 00 68 52 5f 00 00 00 00 01 00 01 00 81 
06 82 3a 00 68 52 5f 00 00 00 00 01 00 01 00 81 
06 c3 b5 00 68 52 5f 00 00 00 00 01 00 01 00 81 
07 0d a4 00 68 52 5f 00 00 00 00 01 00 01 00 81 
07 4a 4c 00 68 52 5f 00 00 00 00 01 00 01 00 81 
07 7e b3 00 68 52 5f 00 00 00 00 01 00 01 00 81 
07 a0 2e 00 68 52 5f 00 00 00 00 01 00 01 00 81 
07 ba d9 00 68 52 5f 00 00 00 00 01 00 01 00 81 
07 dc 4f 00 68 52 5f 00 00 00 00 01 00 01 00 81 
08 02 c9 00 68 52 5f 00 00 00 00 01 00 01 00 81 
07 d5 51 00 68 52 5f 00 00 00 00 01 00 01 00 81 
07 a0 17 00 68 52 5f 00 00 00 00 01 00 01 00 81 
07 80 34 00 68 52 5f 00 00 00 00 01 00 01 00 81 
07 4b ee 00 68 52 5f 00 00 00 00 01 00 01 00 81 
07 11 ce 00 68 52 5f 00 00 00 00 01 00 01 00 81 
06 d4 45 00 68 52 5f 00 00 00 00 01 00 01 00 81 
06 a2 b7 00 68 52 5f 00 00 00 00 01 00 01 00 81 
06 84 0f 00 68 52 5f 00 00 00 00 01 00 01 00 81 
06 7d 47 00 68 52 5f 00 00 00 00 01 00 01 00 81 
06 79 69 00 68 52 5f 00 00 00 00 01 00 01 00 81 
06 6a db 00 68 52 5f 00 00 00 00 01 00 01 00 81 
06 88 95 00 68 52 5f 00 00 00 00 01 00 01 00 81 
06 4b b8 00 68 52 5f 00 00 00 00 01 00 01 00 81 
05 ed fe 00 68 52 5f 00 00 00 00 01 00 01 00 81 
05 98 1b 00 68 52 5f 00 00 00 00 01 00 01 00 81 
06 62 ab 00 68 52 5f 00 00 00 00 01 00 01 00 81 
13 3f 25 00 68 52 5f 00 00 00 00 01 00 01 00 81 
19 4a 38 00 68 52 5f 00 00 00 00 01 00 01 00 81 
15 7a d8 00 68 52 5f 00 00 00 00 01 00 01 00 81 
12 b6 87 00 68 52 5f 00 00 00 00 01 00 01 00 81 
10 49 5c 00 68 52 5f 00 00 00 00 01 00 01 00 81 
0f 20 a7 00 68 52 5f 00 00 00 00 01 00 01 00 81 
0f 2c d7 00 68 52 5f 00 00 00 00 01 00 01 00 81 
0f dc 3b 00 68 52 5f 00 00 00 00 01 00 01 00 81 
11 3f 90 00 68 52 5f 00 00 00 00 01 00 01 00 81 
13 64 2e 00 68 52 5f 00 00 00 00 01 00 01 00 81 
16 01 84 00 68 52 5f 00 00 00 00 01 00 01 00 81 
18 7e 51 00 68 52 5f 00 00 00 00 01 00 01 00 81 
1a 58 b5 00 68 52 5f 00 00 00 00 01 00 01 00 81 
1b 19 0f 00 68 52 5f 00 00 00 00 01 00 01 00 81 
1a d7 c0 00 68 52 5f 00 00 00 00 01 00 01 00 81 
1a dc db 00 68 52 5f 00 00 00 00 01 00 01 00 81 
1a ee 93 00 68 52 5f 00 00 00 00 01 00 01 00 81 
1b 25 96 00 68 52 5f 00 00 00 00 01 00 01 00 81 
1b 71 53 00 68 52 5f 00 00 00 00 01 00 01 00 81 
1b 8c a8 00 68 52 5f 00 00 00 00 01 00 01 00 81 
1b 9d 7c 00 68 52 5f 00 00 00 00 01 00 01 00 81 
1b aa 89 00 68 52 5f 00 00 00 00 01 00 01 00 81 
1b b1 55 00 68 52 5f 00 00 00 00 01 00 01 00 81 
1b c4 9c 00 68 52 5f 00 00 00 00 01 00 01 00 81 
1b da 8d 00 68 52 5f 00 00 00 00 01 00 01 00 81 
1b e8 c1 00 68 52 5f 00 00 00 00 01 00 01 00 81 
1b f1 a2 00 68 52 5f 00 00 00 00 01 00 01 00 81 
1b f4 59 00 68 52 5f 00 00 00 00 01 00 01 00 81 
1b f5 5b 00 68 52 5f 00 00 00 00 01 00 01 00 81 
1b f8 14 00 68 52 5f 00 00 00 00 01 00 01 00 81 
1c 01 20 00 68 52 5f 00 00 00 00 01 00 01 00 81 
1c 0d 7c 00 68 52 5f 00 00 00 00 01 00 01 00 81 
1c 19 bd 00 68 52 5f 00 00 00 00 01 00 01 00 81 
1c 23 7b 00 68 52 5f 00 00 00 00 01 00 01 00 81 
1c 2c c3 00 68 52 5f 00 00 00 00 01 00 01 00 81 
1c 34 85 00 68 52 5f 00 00 00 00 01 00 01 00 81 
1c 3d 89 00 68 52 5f 00 00 00 00 01 00 01 00 81 
1c 47 a6 00 68 52 5f 00 00 00 00 01 00 01 00 81 
1c 53 12 00 68 52 5f 00 00 00 00 01 00 01 00 81 
1c 5b 55 00 68 52 5f 00 00 00 00 01 00 01 00 81 
1c 63 76 00 68 52 5f 00 00 00 00 01 00 01 00 81 
1c 68 73 00 68 52 5f 00 00 00 00 01 00 01 00 81 
1c 6e 70 00 68 52 5f 00 00 00 00 01 00 01 00 81 
1c 73 74 00 68 52 5f 00 00 00 00 01 00 01 00 81 
1c 77 39 00 68 52 5f 00 00 00 00 01 00 01 00 81 
1c 7a 45 00 68 52 5f 00 00 00 00 01 00 01 00 81 
1c 78 a1 00 68 52 5f 00 00 00 00 01 00 01 00 81 
1c 7a 4e 00 68 52 5f 00 00 00 00 01 00 01 00 81 
1c 77 9e 00 68 52 5f 00 00 00 00 01 00 01 00 81 
1c 6e 70 00 68 52 5f 00 00 00 00 01 00 01 00 81 
1c 5c ac 00 68 52 5f 00 00 00 00 01 00 01 00 81 
1c 3d bd 00 68 52 5f 00 00 00 00 01 00 01 00 81 
1c 15 d2 00 68 52 5f 00 00 00 00 01 00 01 00 81 
1c 01 77 00 68 52 5f 00 00 00 00 01 00 01 00 81 
1b f4 ad 00 68 52 5f 00 00 00 00 01 00 01 00 81 
1b e8 7f 00 68 52 5f 00 00 00 00 01 00 01 00 81 
1b e2 95 00 68 52 5f 00 00 00 00 01 00 01 00 81 
1b df 31 00 68 52 5f 00 00 00 00 01 00 01 00 81 
1b da 7a 00 68 52 5f 00 00 00 00 01 00 01 00 81 
1b d1 40 00 68 52 5f 00 00 00 00 01 00 01 00 81 
1b c7 d2 00 68 52 5f 00 00 00 00 01 00 01 00 81 
1b be 1d 00 68 52 5f 00 00 00 00 01 00 01 00 81 
1b b5 81 00 68 52 5f 00 00 00 00 01 00 01 00 81 
1b ae 9d 00 68 52 5f 00 00 00 00 01 00 01 00 81 
1b a7 4f 00 68 52 5f 00 00 00 00 01 00 01 00 81 
1b a1 7f 00 68 52 5f 00 00 00 00 01 00 01 00 81 
1b 98 a7 00 68 52 5f 00 00 00 00 01 00 01 00 81 
1b 92 8f 00 68 52 5f 00 00 00 00 01 00 01 00 81 
1b 90 14 00 68 52 5f 00 00 00 00 01 00 01 00 81 
1b 8e 0c 00 68 52 5f 00 00 00 00 01 00 01 00 81 
1b 8c d2 00 68 52 5f 00 00 00 00 01 00 01 00 81 
1b 8d 18 00 68 52 5f 00 00 00 00 01 00 01 00 81 
1b 8a 1e 00 68 52 5f 00 00 00 00 01 00 01 00 81 
1b 89 a7 00 68 52 5f 00 00 00 00 01 00 01 00 81 
1b 89 4e 00 68 52 5f 00 00 00 00 01 00 01 00 81 
1b 8a 26 00 68 52 5f 00 00 00 00 01 00 01 00 81 
1b 8d b8 00 68 52 5f 00 00 00 00 01 00 01 00 81 
1b 95 31 00 68 52 5f 00 00 00 00 01 00 01 00 81 
1b 9f cc 00 68 52 5f 00 00 00 00 01 00 01 00 81 
1b a5 4a 00 68 52 5f 00 00 00 00 01 00 01 00 81 
1b b2 45 00 68 52 5f 00 00 00 00 01 00 01 00 81 
1b bf e1 00 68 52 5f 00 00 00 00 01 00 01 00 81 
1b cc df 00 68 52 5f 00 00 00 00 01 00 01 00 81 
1b d8 ee 00 68 52 5f 00 00 00 00 01 00 01 00 81 
1b e2 38 00 68 52 5f 00 00 00 00 01 00 01 00 81 
1b ed b3 00 68 52 5f 00 00 00 00 01 00 01 00 81 
1b f7 ec 00 68 52 5f 00 00 00 00 01 00 01 00 81 
1b fc a2 00 68 52 5f 00 00 00 00 01 00 01 00 81 
1b fa 7d 00 68 52 5f 00 00 00 00 01 00 01 00 81 
1b f9 e1 00 68 52 5f 00 00 00 00 01 00 01 00 81 
1b fe f9 00 68 52 5f 00 00 00 00 01 00 01 00 81 
1c 00 2c 00 68 52 5f 00 00 00 00 01 00 01 00 81 
1c 04 ce 00 68 52 5f 00 00 00 00 01 00 01 00 81 
1c 09 8d 00 68 52 5f 00 00 00 00 01 00 01 00 81 
1c 13 1c 00 68 52 5f 00 00 00 00 01 00 01 00 81 
1c 23 ae 00 68 52 5f 00 00 00 00 01 00 01 00 81 
1c 38 55 00 68 52 5f 00 00 00 00 01 00 01 00 81 
1c 4b bf 00 68 52 5f 00 00 00 00 01 00 01 00 81 
1c 5d 07 00 68 52 5f 00 00 00 00 01 00 01 00 81 
1c 6c 4a 00 68 52 5f 00 00 00 00 01 00 01 00 81 
1c 79 1a 00 68 52 5f 00 00 00 00 01 00 01 00 81 
1c 84 b4 00 68 52 5f 00 00 00 00 01 00 01 00 81 
1c 8b e3 00 68 52 5f 00 00 00 00 01 00 01 00 81 
1c 93 a2 00 68 52 5f 00 00 00 00 01 00 01 00 81 
1c 9a 17 00 68 52 5f 00 00 00 00 01 00 01 00 81 
1c a0 b8 00 68 52 5f 00 00 00 00 01 00 01 00 81 
1c a3 b5 00 68 52 5f 00 00 00 00 01 00 01 00 81 
1c a3 24 00 68 52 5f 00 00 00 00 01 00 01 00 81 
1c a2 fe 00 68 52 5f 00 00 00 00 01 00 01 00 81 
1c aa 62 00 68 52 5f 00 00 00 00 01 00 01 00 81 
1c b4 f2 00 68 52 5f 00 00 00 00 01 00 01 00 81 
1c c2 83 00 68 52 5f 00 00 00 00 01 00 01 00 81 
1c d1 38 00 68 52 5f 00 00 00 00 01 00 01 00 81 
1c de b2 00 68 52 5f 00 00 00 00 01 00 01 00 81 
1c ee ec 00 68 52 5f 00 00 00 00 01 00 01 00 81 
1d 0a 7e 00 68 52 5f 00 00 00 00 01 00 01 00 81 
1d 2e 77 00 68 52 5f 00 00 00 00 01 00 01 00 81 
1d 51 4a 00 68 52 5f 00 00 00 00 01 00 01 00 81 
1d 68 ce 00 68 52 5f 00 00 00 00 01 00 01 00 81 
1d 74 73 00 68 52 5f 00 00 00 00 01 00 01 00 81 
1d 7c 65 00 68 52 5f 00 00 00 00 01 00 01 00 81 
1d 87 a2 00 68 52 5f 00 00 00 00 01 00 01 00 81 
1d 93 39 00 68 52 5f 00 00 00 00 01 00 01 00 81 
1d 9f c5 00 68 52 5f 00 00 00 00 01 00 01 00 81 
1d a6 7a 00 68 52 5f 00 00 00 00 01 00 01 00 81 
1d ab 89 00 68 52 5f 00 00 00 00 01 00 01 00 81 
1d b6 21 00 68 52 5f 00 00 00 00 01 00 01 00 81 
1d c3 28 00 68 52 5f 00 00 00 00 01 00 01 00 81 
1d cd 82 00 68 52 5f 00 00 00 00 01 00 01 00 81 
1d d7 5a 00 68 52 5f 00 00 00 00 01 00 01 00 81 
1d e2 1a 00 68 52 5f 00 00 00 00 01 00 01 00 81 
1d ed d3 00 68 52 5f 00 00 00 00 01 00 01 00 81 
1d fa 55 00 68 52 5f 00 00 00 00 01 00 01 00 81 
1e 05 98 00 68 52 5f 00 00 00 00 01 00 01 00 81 
1e 0d cc 00 68 52 5f 00 00 00 00 01 00 01 00 81 
1e 12 a2 00 68 52 5f 00 00 00 00 01 00 01 00 81 
1e 1f 1a 00 68 52 5f 00 00 00 00 01 00 01 00 81 
1e 2d 13 00 68 52 5f 00 00 00 00 01 00 01 00 81 
1e 3a fa 00 68 52 5f 00 00 00 00 01 00 01 00 81 
1e 47 db 00 68 52 5f 00 00 00 00 01 00 01 00 81 
1e 58 67 00 68 52 5f 00 00 00 00 01 00 01 00 81 
1e 6a 47 00 68 52 5f 00 00 00 00 01 00 01 00 81 
1e 7f fa 00 68 52 5f 00 00 00 00 01 00 01 00 81 
1e 97 ea 00 68 52 5f 00 00 00 00 01 00 01 00 81 
1e b1 11 00 68 52 5f 00 00 00 00 01 00 01 00 81 
1e c9 a1 00 68 52 5f 00 00 00 00 01 00 01 00 81 
1e e0 d6 00 68 52 5f 00 00 00 00 01 00 01 00 81 
1e f4 5f 00 68 52 5f 00 00 00 00 01 00 01 00 81 
1f 03 1b 00 68 52 5f 00 00 00 00 01 00 01 00 81 
1f 12 58 00 68 52 5f 00 00 00 00 01 00 01 00 81 
1f 21 65 00 68 52 5f 00 00 00 00 01 00 01 00 81 
1f 2f e0 00 68 52 5f 00 00 00 00 01 00 01 00 81 
1f 38 15 00 68 52 5f 00 00 00 00 01 00 01 00 81 
1f 40 09 00 68 52 5f 00 00 00 00 01 00 01 00 81 
1f 47 80 00 68 52 5f 00 00 00 00 01 00 01 00 81 
1f 4c d5 00 68 52 5f 00 00 00 00 01 00 01 00 81 
1f 50 73 00 68 52 5f 00 00 00 00 01 00 01 00 81 
1f 56 9a 00 68 52 5f 00 00 00 00 01 00 01 00 81 
1f 60 4b 00 68 52 5f 00 00 00 00 01 00 01 00 81 
1f 67 42 00 68 52 5f 00 00 00 00 01 00 01 00 81 
1f 6d 89 00 68 52 5f 00 00 00 00 01 00 01 00 81 
1f 71 d6 00 68 52 5f 00 00 00 00 01 00 01 00 81 
1f 7d 7a 00 68 52 5f 00 00 00 00 01 00 01 00 81 
1f 8c 2b 00 68 52 5f 00 00 00 00 01 00 01 00 81 
1f 99 e9 00 68 52 5f 00 00 00 00 01 00 01 00 81 
1f aa 0b 00 68 52 5f 00 00 00 00 01 00 01 00 81 
1f b9 76 00 68 52 5f 00 00 00 00 01 00 01 00 81 
1f c9 0b 00 68 52 5f 00 00 00 00 01 00 01 00 81 
1f d4 c7 00 68 52 5f 00 00 00 00 01 00 01 00 81 
1f e0 a0 00 68 52 5f 00 00 00 00 01 00 01 00 81 
1f e8 6c 00 68 52 5f 00 00 00 00 01 00 01 00 81 
1f f8 46 00 68 52 5f 00 00 00 00 01 00 01 00 81 
1f ff 19 00 68 52 5f 00 00 00 00 01 00 01 00 81 
1f ff 19 00 68 52 5f 00 00 00 00 01 00 01 00 81 
1f ff 19 00 68 52 5f 00 00 00 00 01 00 01 00 81 
1f ff 19 00 68 52 5f 00 00 00 00 01 00 01 00 81 
1f f8 4e 00 68 52 5f 00 00 00 00 01 00 01 00 81 
1f f4 75 00 68 52 5f 00 00 00 00 01 00 01 00 81 
1f ec b1 00 68 52 5f 00 00 00 00 01 00 01 00 81 
1f f0 35 00 68 52 5f 00 00 00 00 01 00 01 00 81 
1f ea 9a 00 68 52 5f 00 00 00 00 01 00 01 00 81 
1f e3 b6 00 68 52 5f 00 00 00 00 01 00 01 00 81 
1f de 79 00 68 52 5f 00 00 00 00 01 00 01 00 81 
1f d7 8c 00 68 52 5f 00 00 00 00 01 00 01 00 81 
1f cd c1 00 68 52 5f 00 00 00 00 01 00 01 00 81 
1f ba ea 00 68 52 5f 00 00 00 00 01 00 01 00 81 
1f a2 1d 00 68 52 5f 00 00 00 00 01 00 01 00 81 
1f 84 bd 00 68 52 5f 00 00 00 00 01 00 01 00 81 
1f 62 1f 00 68 52 5f 00 00 00 00 01 00 01 00 81 
1f 35 15 00 68 52 5f 00 00 00 00 01 00 01 00 81 
1f 0d 66 00 68 52 5f 00 00 00 00 01 00 01 00 81 
1e f2 75 00 68 52 5f 00 00 00 00 01 00 01 00 81 
1e ab e6 00 68 52 5f 00 00 00 00 01 00 01 00 81 
1e 21 64 00 68 52 5f 00 00 00 00 01 00 01 00 81 
1d fd 7d 00 68 52 5f 00 00 00 00 01 00 01 00 81 
1d 98 92 00 68 52 5f 00 00 00 00 01 00 01 00 81 
1d 1a 72 00 68 52 5f 00 00 00 00 01 00 01 00 81 
1c 45 81 00 68 52 5f 00 00 00 00 01 00 01 00 81 
1b d7 4e 00 68 52 5f 00 00 00 00 01 00 01 00 81 
1b 95 21 00 68 52 5f 00 00 00 00 01 00 01 00 81 
1b 52 c2 00 68 52 5f 00 00 00 00 01 00 01 00 81 
1b 36 ed 00 68 52 5f 00 00 00 00 01 00 01 00 81 
11 01 81 00 68 52 5f 00 00 00 00 01 00 01 00 81 
11 0b 2d 00 68 52 5f 00 00 00 00 01 00 01 00 81 
11 2e ed 00 68 52 5f 00 00 00 00 01 00 01 00 81 
11 68 23 00 68 52 5f 00 00 00 00 01 00 01 00 81 
11 e4 a4 00 68 52 5f 00 00 00 00 01 00 01 00 81 
12 74 8a 00 68 52 5f 00 00 00 00 01 00 01 00 81 
12 d5 9f 00 68 52 5f 00 00 00 00 01 00 01 00 81 
13 0b a7 00 68 52 5f 00 00 00 00 01 00 01 00 81 
13 08 61 00 68 52 5f 00 00 00 00 01 00 01 00 81 
13 0b b4 00 68 52 5f 00 00 00 00 01 00 01 00 81 
13 71 bb 00 68 52 5f 00 00 00 00 01 00 01 00 81 
13 53 aa 00 68 52 5f 00 00 00 00 01 00 01 00 81 
13 2b 17 00 68 52 5f 00 00 00 00 01 00 01 00 81 
13 1f f2 00 68 52 5f 00 00 00 00 01 00 01 00 81 
13 16 ed 00 68 52 5f 00 00 00 00 01 00 01 00 81 
13 0c 0e 00 68 52 5f 00 00 00 00 01 00 01 00 81 
13 0b 3b 00 68 52 5f 00 00 00 00 01 00 01 00 81 
12 da ce 00 68 52 5f 00 00 00 00 01 00 01 00 81 
13 5a a9 00 68 52 5f 00 00 00 00 01 00 01 00 81 
1f ff 19 00 68 52 5f 00 00 00 00 01 00 01 00 81 
1f ff 19 00 68 52 5f 00 00 00 00 01 00 01 00 81 
1f ff 19 00 68 52 5f 00 00 00 00 01 00 01 00 81 
1f ff 19 00 68 52 5f 00 00 00 00 01 00 01 00 81 
1f ff 19 00 68 52 5f 00 00 00 00 01 00 01 00 81 
1f ff 19 00 68 52 5f 00 00 00 00 01 00 01 00 81 
1f ff 19 00 68 52 5f 00 00 00 00 01 00 01 00 81 
1f ff 19 00 68 52 5f 00 00 00 00 01 00 01 00 81 
1f ff 19 00 68 52 5f 00 00 00 00 01 00 01 00 81 
1f ff 19 00 68 52 5f 00 00 00 00 01 00 01 00 81 
1f ff 19 00 68 52 5f 00 00 00 00 01 00 01 00 81 
1f ff 19 00 68 52 5f 00 00 00 00 01 00 01 00 81 
1f ff 19 00 68 52 5f 00 00 00 00 01 00 01 00 81 
1f ff 19 00 68 52 5f 00 00 00 00 01 00 01 00 81 
1f ff 19 00 68 52 5f 00 00 00 00 01 00 01 00 81 
1f ff 19 00 68 52 5f 00 00 00 00 01 00 01 00 81 
1f ff 19 00 68 52 5f 00 00 00 00 01 00 01 00 81 
1f ff 19 00 68 52 5f 00 00 00 00 01 00 01 00 81 
1f ff 19 00 68 52 5f 00 00 00 00 01 00 01 00 81 
1f ff 19 00 68 52 5f 00 00 00 00 01 00 01 00 81 
1f ff 19 00 68 52 5f 00 00 00 00 01 00 01 00 81 
1f ff 19 00 68 52 5f 00 00 00 00 01 00 01 00 81 
1f ff 19 00 68 52 5f 00 00 00 00 01 00 01 00 81 
1f ff 19 00 68 52 5f 00 00 00 00 01 00 01 00 81 
1f ff 19 00 68 52 5f 00 00 00 00 01 00 01 00 81 
1f ff 19 00 68 52 5f 00 00 00 00 01 00 01 00 81 
1f ff 19 00 68 52 5f 00 00 00 00 01 00 01 00 81 
1f ff 19 00 68 52 5f 00 00 00 00 01 00 01 00 81 
1f ff 19 00 68 52 5f 00 00 00 00 01 00 01 00 81 
1f ff 19 00 68 52 5f 00 00 00 00 01 00 01 00 81 
1f ff 19 00 68 52 5f 00 00 00 00 01 00 01 00 81 
1f ff 19 00 68 52 5f 00 00 00 00 01 00 01 00 81 
1f ff 19 00 68 52 5f 00 00 00 00 01 00 01 00 81 
1f ff 19 00 68 52 5f 00 00 00 00 01 00 01 00 81 
1f ff 19 00 68 52 5f 00 00 00 00 01 00 01 00 81 
1f ff 19 00 68 52 5f 00 00 00 00 01 00 01 00 81 
1f ff 19 00 68 52 5f 00 00 00 00 01 00 01 00 81 
1f ff 19 00 68 52 5f 00 00 00 00 01 00 01 00 81 
1f ff 19 00 68 52 5f 00 00 00 00 01 00 01 00 81 
1f ff 19 7a 66 00 00 00 00 10 00 71 25 00 00 81 
1f ff 19 00 00 fa 44 00 00 04 00 00 00 0a 85 81 
1f ff 19 00 00 fa 44 00 00 04 00 00 00 0a 85 81 
1f ff 19 00 00 fa 44 00 00 04 00 00 00 0a 85 81 
1f ff 19 00 00 fa 44 00 00 04 00 00 00 0a 85 81 
1f ff 19 00 00 fa 44 00 00 04 00 00 00 0a 85 81 
1f ff 19 00 00 fa 44 00 00 04 00 00 00 0a 85 81 
1f ff 19 00 00 fa 44 00 00 04 00 00 00 0a 85 81 
1f ff 19 00 00 fa 44 00 00 04 00 00 00 0a 85 81 
1f ff 19 00 00 fa 44 00 00 04 00 00 00 0a 85 81 
1f ff 19 00 00 fa 44 00 00 04 00 00 00 0a 85 81 
1f ff 19 00 00 fa 44 00 00 04 00 00 00 0a 85 81 
1f ff 19 00 00 fa 44 00 00 04 00 00 00 0a 85 81 
1f ff 19 00 00 fa 44 00 00 04 00 00 00 0a 85 81 
1f ff 19 00 00 fa 44 00 00 04 00 00 00 0a 85 81 
1f ff 19 00 00 fa 44 00 00 04 00 00 00 0a 85 81 
1f ff 19 00 00 fa 44 00 00 04 00 00 00 0a 85 81 
1f ff 19 00 00 fa 44 00 00 04 00 00 00 0a 85 81 
16 1d d4 00 00 fa 44 00 00 04 00 00 00 0a 85 81 
16 13 6f 00 00 fa 44 00 00 04 00 00 00 0a 85 81 
16 1b 3a 00 00 fa 44 00 00 04 00 00 00 0a 85 81 
16 1f 74 00 00 fa 44 00 00 04 00 00 00 0a 85 81 
16 23 a2 00 00 fa 44 00 00 04 00 00 00 0a 85 81 
16 27 7d 00 00 fa 44 00 00 04 00 00 00 0a 85 81 
16 28 11 00 00 fa 44 00 00 04 00 00 00 0a 85 81 
16 2a 1b 00 00 fa 44 00 00 04 00 00 00 0a 85 81 
16 2e 59 00 00 fa 44 00 00 04 00 00 00 0a 85 81 
16 35 28 00 00 fa 44 00 00 04 00 00 00 0a 85 81 
16 3a 0a 00 00 fa 44 00 00 04 00 00 00 0a 85 81 
16 3d 40 00 00 fa 44 00 00 04 00 00 00 0a 85 81 
16 3f f3 00 00 fa 44 00 00 04 00 00 00 0a 85 81 
16 42 fe 00 00 fa 44 00 00 04 00 00 00 0a 85 81 
16 46 ce 00 00 fa 44 00 00 04 00 00 00 0a 85 81 
16 4c 28 00 00 fa 44 00 00 04 00 00 00 0a 85 81 
16 4d e5 00 00 fa 44 00 00 04 00 00 00 0a 85 81 
16 4f 2d 00 00 fa 44 00 00 04 00 00 00 0a 85 81 
16 50 65 00 00 fa 44 00 00 04 00 00 00 0a 85 81 
0b 16 42 00 00 fa 44 00 00 04 00 00 00 0a 85 81 
0b 0d ab 00 00 fa 44 00 00 04 00 00 00 0a 85 81 
0b 0f b9 00 00 fa 44 00 00 04 00 00 00 0a 85 81 
0b 11 ec 00 00 fa 44 00 00 04 00 00 00 0a 85 81 
0b 13 f7 00 00 fa 44 00 00 04 00 00 00 0a 85 81 
0b 15 f3 00 00 fa 44 00 00 04 00 00 00 0a 85 81 
0b 16 fb 00 00 fa 44 00 00 04 00 00 00 0a 85 81 
0b 17 83 00 00 fa 44 00 00 04 00 00 00 0a 85 81 
0b 18 07 00 00 fa 44 00 00 04 00 00 00 0a 85 81 
0b 18 33 00 00 fa 44 00 00 04 00 00 00 0a 85 81 
0b 18 5b 00 00 fa 44 00 00 04 00 00 00 0a 85 81 
0b 17 be 00 00 fa 44 00 00 04 00 00 00 0a 85 81 
0b 17 73 00 00 fa 44 00 00 04 00 00 00 0a 85 81 
0b 16 38 00 00 fa 44 00 00 04 00 00 00 0a 85 81 
0b 17 ce 00 00 fa 44 00 00 04 00 00 00 0a 85 81 
0b 1a 5f 00 00 fa 44 00 00 04 00 00 00 0a 85 81 
0b 1d 0f 00 00 fa 44 00 00 04 00 00 00 0a 85 81 
0b 1f 36 00 00 fa 44 00 00 04 00 00 00 0a 85 81 
0b 21 1b 00 00 fa 44 00 00 04 00 00 00 0a 85 81 
0e e6 bf 00 00 fa 44 00 00 04 00 00 00 0a 85 81 
0e ec 84 00 00 fa 44 00 00 04 00 00 00 0a 85 81 
0e ed 27 00 00 fa 44 00 00 04 00 00 00 0a 85 81 
0e ef 26 00 00 fa 44 00 00 04 00 00 00 0a 85 81 
0e ef e0 00 00 fa 44 00 00 04 00 00 00 0a 85 81 
0e ef b9 00 00 fa 44 00 00 04 00 00 00 0a 85 81 
0e f0 93 00 00 fa 44 00 00 04 00 00 00 0a 85 81 
0e f0 7a 00 00 fa 44 00 00 04 00 00 00 0a 85 81 
0e f0 a4 00 00 fa 44 00 00 04 00 00 00 0a 85 81 
0e f1 e2 00 00 fa 44 00 00 04 00 00 00 0a 85 81 
0e f1 fd 00 00 fa 44 00 00 04 00 00 00 0a 85 81 
0e f2 df 00 00 fa 44 00 00 04 00 00 00 0a 85 81 
0e f3 5b 00 00 fa 44 00 00 04 00 00 00 0a 85 81 
0e f4 9d 00 00 fa 44 00 00 04 00 00 00 0a 85 81 
0e f5 d9 00 00 fa 44 00 00 04 00 00 00 0a 85 81 
0e f6 9e 00 00 fa 44 00 00 04 00 00 00 0a 85 81 
0e f7 02 00 00 fa 44 00 00 04 00 00 00 0a 85 81 
0e f6 d5 00 00 fa 44 00 00 04 00 00 00 0a 85 81 
0e f5 be 00 00 fa 44 00 00 04 00 00 00 0a 85 81 
0e f5 62 00 00 fa 44 00 00 04 00 00 00 0a 85 81 
0e f4 21 00 00 fa 44 00 00 04 00 00 00 0a 85 81 
0e f1 fa 00 00 fa 44 00 00 04 00 00 00 0a 85 81 
0e ef 55 00 00 fa 44 00 00 04 00 00 00 0a 85 81 
0e ee 50 00 00 fa 44 00 00 04 00 00 00 0a 85 81 
0e ed aa 00 00 fa 44 00 00 04 00 00 00 0a 85 81 
0e ef 01 00 00 fa 44 00 00 04 00 00 00 0a 85 81 
0e f1 22 00 00 fa 44 00 00 04 00 00 00 0a 85 81 
0e f3 f0 00 00 fa 44 00 00 04 00 00 00 0a 85 81 
0e f6 f7 00 00 fa 44 00 00 04 00 00 00 0a 85 81 
0e f9 4e 00 00 fa 44 00 00 04 00 00 00 0a 85 81 
0e fb 8e 00 00 fa 44 00 00 04 00 00 00 0a 85 81 
0e fd 95 00 00 fa 44 00 00 04 00 00 00 0a 85 81 
0e ff 55 00 00 fa 44 00 00 04 00 00 00 0a 85 81 
0f 01 83 00 00 fa 44 00 00 04 00 00 00 0a 85 81 
0f 05 22 00 00 fa 44 00 00 04 00 00 00 0a 85 81 
0f 08 57 00 00 fa 44 00 00 04 00 00 00 0a 85 81 
0f 0a 9d 00 00 fa 44 00 00 04 00 00 00 0a 85 81 
0f 0f 69 00 00 fa 44 00 00 04 00 00 00 0a 85 81 
0f 12 d4 00 00 fa 44 00 00 04 00 00 00 0a 85 81 
0f 17 16 00 00 fa 44 00 00 04 00 00 00 0a 85 81 
0f 1a dd 00 00 fa 44 00 00 04 00 00 00 0a 85 81 
0f 1d b9 00 00 fa 44 00 00 04 00 00 00 0a 85 81 
0f 20 89 00 00 fa 44 00 00 04 00 00 00 0a 85 81 
0f 23 78 00 00 fa 44 00 00 04 00 00 00 0a 85 81 
0f 25 7b 00 00 fa 44 00 00 04 00 00 00 0a 85 81 
0f 26 57 00 00 fa 44 00 00 04 00 00 00 0a 85 81 
0f 27 fa 00 00 fa 44 00 00 04 00 00 00 0a 85 81 
0f 28 ae 00 00 fa 44 00 00 04 00 00 00 0a 85 81 
0f 29 04 00 00 fa 44 00 00 04 00 00 00 0a 85 81 
0f 29 27 00 00 fa 44 00 00 04 00 00 00 0a 85 81 
0f 28 65 00 00 fa 44 00 00 04 00 00 00 0a 85 81 
0f 27 85 00 00 fa 44 00 00 04 00 00 00 0a 85 81 
0f 26 90 00 00 fa 44 00 00 04 00 00 00 0a 85 81 
0f 25 59 00 00 fa 44 00 00 04 00 00 00 0a 85 81 
0f 25 d5 00 00 fa 44 00 00 04 00 00 00 0a 85 81 
0f 26 a8 00 00 fa 44 00 00 04 00 00 00 0a 85 81 
0f 28 04 00 00 fa 44 00 00 04 00 00 00 0a 85 81 
0f 29 8c 00 00 fa 44 00 00 04 00 00 00 0a 85 81 
0f 2a 81 00 00 fa 44 00 00 04 00 00 00 0a 85 81 
0f 2b 8c 00 00 fa 44 00 00 04 00 00 00 0a 85 81 
0f 2c da 00 00 fa 44 00 00 04 00 00 00 0a 85 81 
0f 2d d0 00 00 fa 44 00 00 04 00 00 00 0a 85 81 
0f 2f 92 00 00 fa 44 00 00 04 00 00 00 0a 85 81 
0f 31 67 00 00 fa 44 00 00 04 00 00 00 0a 85 81 
0f 33 14 00 00 fa 44 00 00 04 00 00 00 0a 85 81 
0f 33 c9 00 00 fa 44 00 00 04 00 00 00 0a 85 81 
0f 33 eb 00 00 fa 44 00 00 04 00 00 00 0a 85 81 
0f 33 0a 00 00 fa 44 00 00 04 00 00 00 0a 85 81 
0f 31 23 00 00 fa 44 00 00 04 00 00 00 0a 85 81 
0f 2f 9f 00 00 fa 44 00 00 04 00 00 00 0a 85 81 
0f 2e 64 00 00 fa 44 00 00 04 00 00 00 0a 85 81 
0f 2c e4 00 00 fa 44 00 00 04 00 00 00 0a 85 81 
0f 2b b3 00 00 fa 44 00 00 04 00 00 00 0a 85 81 
0f 2a 88 00 00 fa 44 00 00 04 00 00 00 0a 85 81 
0f 29 56 00 00 fa 44 00 00 04 00 00 00 0a 85 81 
0f 27 a1 00 00 fa 44 00 00 04 00 00 00 0a 85 81 
0f 27 7e 00 00 fa 44 00 00 04 00 00 00 0a 85 81 
0f 27 bc 00 00 fa 44 00 00 04 00 00 00 0a 85 81 
0f 27 de 00 00 fa 44 00 00 04 00 00 00 0a 85 81 
0f 29 7c 00 00 fa 44 00 00 04 00 00 00 0a 85 81 
0f 2a 2f 00 00 fa 44 00 00 04 00 00 00 0a 85 81 
0f 2b 2c 00 00 fa 44 00 00 04 00 00 00 0a 85 81 
0f 2b a0 00 00 fa 44 00 00 04 00 00 00 0a 85 81 
0f 2b ff 00 00 fa 44 00 00 04 00 00 00 0a 85 81 
0f 2c a1 00 00 fa 44 00 00 04 00 00 00 0a 85 81 
0f 2c c4 00 00 fa 44 00 00 04 00 00 00 0a 85 81 
0f 2d 33 00 00 fa 44 00 00 04 00 00 00 0a 85 81 
0f 2d 06 00 00 fa 44 00 00 04 00 00 00 0a 85 81 
0f 2b e1 00 00 fa 44 00 00 04 00 00 00 0a 85 81 
0f 2b 8f 00 00 fa 44 00 00 04 00 00 00 0a 85 81 
0f 2b be 00 00 fa 44 00 00 04 00 00 00 0a 85 81 
0f 2b 62 00 00 fa 44 00 00 04 00 00 00 0a 85 81 
0f 2a e4 00 00 fa 44 00 00 04 00 00 00 0a 85 81 
0f 2a 43 00 00 fa 44 00 00 04 00 00 00 0a 85 81 
0f 29 ce 00 00 fa 44 00 00 04 00 00 00 0a 85 81 
0f 2a 44 00 00 fa 44 00 00 04 00 00 00 0a 85 81 
0f 2a f3 00 00 fa 44 00 00 04 00 00 00 0a 85 81 
0f 2a 78 00 00 fa 44 00 00 04 00 00 00 0a 85 81 
0f 2b 59 00 00 fa 44 00 00 04 00 00 00 0a 85 81 
0f 2c 0d 00 00 fa 44 00 00 04 00 00 00 0a 85 81 
0f 2b c2 00 00 fa 44 00 00 04 00 00 00 0a 85 81 
0f 2c 18 00 00 fa 44 00 00 04 00 00 00 0a 85 81 
0f 2c 88 00 00 fa 44 00 00 04 00 00 00 0a 85 81 
0f 2b f0 00 00 fa 44 00 00 04 00 00 00 0a 85 81 
0f 2c cb 00 00 fa 44 00 00 04 00 00 00 0a 85 81 
0f 2c 37 00 00 fa 44 00 00 04 00 00 00 0a 85 81 
0f 2c 75 00 00 fa 44 00 00 04 00 00 00 0a 85 81 
0f 2d 8a 00 00 fa 44 00 00 04 00 00 00 0a 85 81 
0f 2d dd 00 00 fa 44 00 00 04 00 00 00 0a 85 81 
0f 2e 2d 00 00 fa 44 00 00 04 00 00 00 0a 85 81 
0f 2e 6a 00 00 fa 44 00 00 04 00 00 00 0a 85 81 
0f 2e 87 00 00 fa 44 00 00 04 00 00 00 0a 85 81 
0f 2f e6 00 00 fa 44 00 00 04 00 00 00 0a 85 81 
0f 30 30 00 00 fa 44 00 00 04 00 00 00 0a 85 81 
0f 30 ca 00 00 fa 44 00 00 04 00 00 00 0a 85 81 
0f 31 17 00 00 fa 44 00 00 04 00 00 00 0a 85 81 
0f 31 4e 00 00 fa 44 00 00 04 00 00 00 0a 85 81 
0f 30 f5 00 00 fa 44 00 00 04 00 00 00 0a 85 81 
0f 31 8c 00 00 fa 44 00 00 04 00 00 00 0a 85 81 
0f 31 7b 00 00 fa 44 00 00 04 00 00 00 0a 85 81 
0f 32 2a 00 00 fa 44 00 00 04 00 00 00 0a 85 81 
0f 32 2e 00 00 fa 44 00 00 04 00 00 00 0a 85 81 
0f 31 c3 00 00 fa 44 00 00 04 00 00 00 0a 85 81 
0f 32 0f 00 00 fa 44 00 00 04 00 00 00 0a 85 81 
0f 31 30 00 00 fa 44 00 00 04 00 00 00 0a 85 81 
0f 31 d5 00 00 fa 44 00 00 04 00 00 00 0a 85 81 
0f 31 d1 00 00 fa 44 00 00 04 00 00 00 0a 85 81 
0f 31 69 00 00 fa 44 00 00 04 00 00 00 0a 85 81 
0f 31 e4 00 00 fa 44 00 00 04 00 00 00 0a 85 81 
0f 31 c6 00 00 fa 44 00 00 04 00 00 00 0a 85 81 
0f 32 5c 00 00 fa 44 00 00 04 00 00 00 0a 85 81 
0f 32 99 00 00 fa 44 00 00 04 00 00 00 0a 85 81 
0f 32 fe 00 00 fa 44 00 00 04 00 00 00 0a 85 81 
0f 33 15 00 00 fa 44 00 00 04 00 00 00 0a 85 81 
0f 33 73 00 00 fa 44 00 00 04 00 00 00 0a 85 81 
0f 33 7d 00 00 fa 44 00 00 04 00 00 00 0a 85 81 
0f 34 64 00 00 fa 44 00 00 04 00 00 00 0a 85 81 
0f 34 b0 00 00 fa 44 00 00 04 00 00 00 0a 85 81 
0f 35 40 00 00 fa 44 00 00 04 00 00 00 0a 85 81 
0f 35 6a 00 00 fa 44 00 00 04 00 00 00 0a 85 81 
0f 35 c2 00 00 fa 44 00 00 04 00 00 00 0a 85 81 
0f 36 c8 00 00 fa 44 00 00 04 00 00 00 0a 85 81 
0f 37 5f 00 00 fa 44 00 00 04 00 00 00 0a 85 81 
0f 37 74 00 00 fa 44 00 00 04 00 00 00 0a 85 81 
0f 37 f7 00 00 fa 44 00 00 04 00 00 00 0a 85 81 
0f 38 38 00 00 fa 44 00 00 04 00 00 00 0a 85 81 
0f 37 d2 00 00 fa 44 00 00 04 00 00 00 0a 85 81 
0f 38 e0 00 00 fa 44 00 00 04 00 00 00 0a 85 81 
0f 39 1f 00 00 fa 44 00 00 04 00 00 00 0a 85 81 
0f 39 55 00 00 fa 44 00 00 04 00 00 00 0a 85 81 
0f 39 89 00 00 fa 44 00 00 04 00 00 00 0a 85 81 
0f 3a 06 00 00 fa 44 00 00 04 00 00 00 0a 85 81 
0f 3a 22 00 00 fa 44 00 00 04 00 00 00 0a 85 81 
0f 3a 8b 00 00 fa 44 00 00 04 00 00 00 0a 85 81 
0f 3b 11 00 00 fa 44 00 00 04 00 00 00 0a 85 81 
0f 3b a8 00 00 fa 44 00 00 04 00 00 00 0a 85 81 
0f 3b 40 00 00 fa 44 00 00 04 00 00 00 0a 85 81 
0f 3c 3f 00 00 fa 44 00 00 04 00 00 00 0a 85 81 
0f 3d 0c 00 00 fa 44 00 00 04 00 00 00 0a 85 81 
0f 3c d8 00 00 fa 44 00 00 04 00 00 00 0a 85 81 
0f 3d 46 00 00 fa 44 00 00 04 00 00 00 0a 85 81 
0f 3d a8 00 00 fa 44 00 00 04 00 00 00 0a 85 81 
0f 3d ac 00 00 fa 44 00 00 04 00 00 00 0a 85 81 
0f 3e 91 00 00 fa 44 00 00 04 00 00 00 0a 85 81 
0f 3f 34 00 00 fa 44 00 00 04 00 00 00 0a 85 81 
0f 40 12 00 00 fa 44 00 00 04 00 00 00 0a 85 81 
0f 40 9b 00 00 fa 44 00 00 04 00 00 00 0a 85 81 
0f 40 94 00 00 fa 44 00 00 04 00 00 00 0a 85 81 
0f 41 42 00 00 fa 44 00 00 04 00 00 00 0a 85 81 
0f 41 67 00 00 fa 44 00 00 04 00 00 00 0a 85 81 
0f 42 00 00 00 fa 44 00 00 04 00 00 00 0a 85 81 
0f 42 58 00 00 fa 44 00 00 04 00 00 00 0a 85 81 
0f 42 c7 00 00 fa 44 00 00 04 00 00 00 0a 85 81 
0f 43 38 00 00 fa 44 00 00 04 00 00 00 0a 85 81 
0f 43 5e 00 00 fa 44 00 00 04 00 00 00 0a 85 81 
0f 43 a7 00 00 fa 44 00 00 04 00 00 00 0a 85 81 
0f 43 e1 00 00 fa 44 00 00 04 00 00 00 0a 85 81 
0f 44 53 00 00 fa 44 00 00 04 00 00 00 0a 85 81 
0f 44 e1 00 00 fa 44 00 00 04 00 00 00 0a 85 81 
0f 45 08 00 00 fa 44 00 00 04 00 00 00 0a 85 81 
0f 45 7d 00 00 fa 44 00 00 04 00 00 00 0a 85 81 
0f 45 86 00 00 fa 44 00 00 04 00 00 00 0a 85 81 
0f 45 8e 00 00 fa 44 00 00 04 00 00 00 0a 85 81 
0f 46 68 00 00 fa 44 00 00 04 00 00 00 0a 85 81 
0f 46 9d 00 00 fa 44 00 00 04 00 00 00 0a 85 81 
0f 46 b3 00 00 fa 44 00 00 04 00 00 00 0a 85 81 
0f 46 17 00 00 fa 44 00 00 04 00 00 00 0a 85 81 
0f 46 de 00 00 fa 44 00 00 04 00 00 00 0a 85 81 
0f 47 28 00 00 fa 44 00 00 04 00 00 00 0a 85 81 
0f 47 33 00 00 fa 44 00 00 04 00 00 00 0a 85 81 
0f 47 ef 00 00 fa 44 00 00 04 00 00 00 0a 85 81 
0f 47 e0 00 00 fa 44 00 00 04 00 00 00 0a 85 81 
0f 48 16 00 00 fa 44 00 00 04 00 00 00 0a 85 81 
0f 48 7b 00 00 fa 44 00 00 04 00 00 00 0a 85 81 
0f 48 9c 00 00 fa 44 00 00 04 00 00 00 0a 85 81 
0f 48 bf 00 00 fa 44 00 00 04 00 00 00 0a 85 81 
0f 48 3a 00 00 fa 44 00 00 04 00 00 00 0a 85 81 
0f 49 38 00 00 fa 44 00 00 04 00 00 00 0a 85 81 
0f 49 65 00 00 fa 44 00 00 04 00 00 00 0a 85 81 
0f 49 46 00 00 fa 44 00 00 04 00 00 00 0a 85 81 
0f 49 02 00 00 fa 44 00 00 04 00 00 00 0a 85 81 
0f 49 4c 00 00 fa 44 00 00 04 00 00 00 0a 85 81 
0f 49 f4 00 00 fa 44 00 00 04 00 00 00 0a 85 81 
0f 49 cc 00 00 fa 44 00 00 04 00 00 00 0a 85 81 
0f 4a 24 00 00 fa 44 00 00 04 00 00 00 0a 85 81 
0f 4a 43 00 00 fa 44 00 00 04 00 00 00 0a 85 81 
0f 4a d1 00 00 fa 44 00 00 04 00 00 00 0a 85 81 
0f 4b 12 00 00 fa 44 00 00 04 00 00 00 0a 85 81 
0f 4b 3e 00 00 fa 44 00 00 04 00 00 00 0a 85 81 
0f 4a ce 00 00 fa 44 00 00 04 00 00 00 0a 85 81 
0f 4a 8d 00 00 fa 44 00 00 04 00 00 00 0a 85 81 
0f 4b 75 00 00 fa 44 00 00 04 00 00 00 0a 85 81 
0f 4b 64 00 00 fa 44 00 00 04 00 00 00 0a 85 81 
0f 4b 23 00 00 fa 44 00 00 04 00 00 00 0a 85 81 
0f 4b 32 00 00 fa 44 00 00 04 00 00 00 0a 85 81 
0f 4b 45 00 00 fa 44 00 00 04 00 00 00 0a 85 81 
0f 4b ee 00 00 fa 44 00 00 04 00 00 00 0a 85 81 
0f 4b a9 00 00 fa 44 00 00 04 00 00 00 0a 85 81 
0f 4c 3e 00 00 fa 44 00 00 04 00 00 00 0a 85 81 
0f 4c 8a 00 00 fa 44 00 00 04 00 00 00 0a 85 81 
0f 4c 71 00 00 fa 44 00 00 04 00 00 00 0a 85 81 
0f 4c b1 00 00 fa 44 00 00 04 00 00 00 0a 85 81 
0f 4c 79 00 00 fa 44 00 00 04 00 00 00 0a 85 81 
0f 4c d4 00 00 fa 44 00 00 04 00 00 00 0a 85 81 
0f 4d 5b 00 00 fa 44 00 00 04 00 00 00 0a 85 81 
0f 4d 2f 00 00 fa 44 00 00 04 00 00 00 0a 85 81 
0f 4d 16 00 00 fa 44 00 00 04 00 00 00 0a 85 81 
0f 4d fd 00 00 fa 44 00 00 04 00 00 00 0a 85 81 
0f 4e 09 00 00 fa 44 00 00 04 00 00 00 0a 85 81 
0f 4e 33 00 00 fa 44 00 00 04 00 00 00 0a 85 81 
0f 4e 76 00 00 fa 44 00 00 04 00 00 00 0a 85 81 
0f 4e b2 00 00 fa 44 00 00 04 00 00 00 0a 85 81 
0f 4e 69 00 00 fa 44 00 00 04 00 00 00 0a 85 81 
0f 4f 3c 00 00 fa 44 00 00 04 00 00 00 0a 85 81 
0f 4f 8a 00 00 fa 44 00 00 04 00 00 00 0a 85 81 
0f 4f e3 00 00 fa 44 00 00 04 00 00 00 0a 85 81 
0f 50 83 00 00 fa 44 00 00 04 00 00 00 0a 85 81 
0f 4f ea 00 00 fa 44 00 00 04 00 00 00 0a 85 81 
0f 50 85 00 00 fa 44 00 00 04 00 00 00 0a 85 81 
0f 50 a6 00 00 fa 44 00 00 04 00 00 00 0a 85 81 
0f 50 a9 00 00 fa 44 00 00 04 00 00 00 0a 85 81 
0f 50 43 00 00 fa 44 00 00 04 00 00 00 0a 85 81 
0f 50 f9 00 00 fa 44 00 00 04 00 00 00 0a 85 81 
0f 51 22 00 00 fa 44 00 00 04 00 00 00 0a 85 81 
0f 51 83 00 00 fa 44 00 00 04 00 00 00 0a 85 81 
0f 51 2d 00 00 fa 44 00 00 04 00 00 00 0a 85 81 
0f 52 20 00 00 fa 44 00 00 04 00 00 00 0a 85 81 
0f 52 11 00 00 fa 44 00 00 04 00 00 00 0a 85 81 
0f 52 10 00 00 fa 44 00 00 04 00 00 00 0a 85 81 
0f 52 3f 00 00 fa 44 00 00 04 00 00 00 0a 85 81 
0f 52 38 00 00 fa 44 00 00 04 00 00 00 0a 85 81 
0f 52 5d 00 00 fa 44 00 00 04 00 00 00 0a 85 81 
0f 52 44 00 00 fa 44 00 00 04 00 00 00 0a 85 81 
0f 52 62 00 00 fa 44 00 00 04 00 00 00 0a 85 81 
0f 52 d7 00 00 fa 44 00 00 04 00 00 00 0a 85 81 
0f 52 91 00 00 fa 44 00 00 04 00 00 00 0a 85 81 
0f 53 03 00 00 fa 44 00 00 04 00 00 00 0a 85 81 
0f 53 5c 00 00 fa 44 00 00 04 00 00 00 0a 85 81 
0f 53 66 00 00 fa 44 00 00 04 00 00 00 0a 85 81 
0f 53 b3 00 00 fa 44 00 00 04 00 00 00 0a 85 81 
0f 53 b0 00 00 fa 44 00 00 04 00 00 00 0a 85 81 
0f 53 c4 00 00 fa 44 00 00 04 00 00 00 0a 85 81 
0f 53 f1 00 00 fa 44 00 00 04 00 00 00 0a 85 81 
0f 54 89 00 00 fa 44 00 00 04 00 00 00 0a 85 81 
0f 54 50 00 00 fa 44 00 00 04 00 00 00 0a 85 81 
0f 54 a1 00 00 fa 44 00 00 04 00 00 00 0a 85 81 
0f 54 68 00 00 fa 44 00 00 04 00 00 00 0a 85 81 
0f 55 42 00 00 fa 44 00 00 04 00 00 00 0a 85 81 
0f 55 74 00 00 fa 44 00 00 04 00 00 00 0a 85 81 
0f 55 bb 00 00 fa 44 00 00 04 00 00 00 0a 85 81 
0f 55 a5 00 00 fa 44 00 00 04 00 00 00 0a 85 81 
0f 55 95 00 00 00 00 00 00 0a 85 00 00 fa 44 81 
0f 56 31 00 00 fa 44 00 00 00 00 00 00 0a 85 81 
0f 56 d3 00 00 fa 44 00 00 00 00 00 00 0a 85 81 
0f 57 22 00 00 fa 44 00 00 00 00 00 00 0a 85 81 
0f 58 30 00 00 fa 44 00 00 00 00 00 00 0a 85 81 
0f 58 77 00 00 fa 44 00 00 00 00 00 00 0a 85 81 
0f 58 d7 00 00 fa 44 00 00 00 00 00 00 0a 85 81 
0f 58 e6 00 00 fa 44 00 00 00 00 00 00 0a 85 81 
0f 59 35 00 00 fa 44 00 00 00 00 00 00 0a 85 81 
0f 59 1e 00 00 fa 44 00 00 00 00 00 00 0a 85 81 
0f 59 83 00 00 fa 44 00 00 00 00 00 00 0a 85 81 
0f 59 86 00 00 fa 44 00 00 00 00 00 00 0a 85 81 
0f 59 c9 00 00 fa 44 00 00 00 00 00 00 0a 85 81 
0f 59 52 00 00 fa 44 00 00 00 00 00 00 0a 85 81 
0f 5a 47 00 00 fa 44 00 00 00 00 00 00 0a 85 81 
0f 5a 87 00 00 fa 44 00 00 00 00 00 00 0a 85 81 
0f 59 d0 00 00 fa 44 00 00 00 00 00 00 0a 85 81 
0f 5b 00 00 00 fa 44 00 00 00 00 00 00 0a 85 81 
0f 5a 65 00 00 fa 44 00 00 00 00 00 00 0a 85 81 
0f 5b 55 00 00 fa 44 00 00 00 00 00 00 0a 85 81 
0f 5b 79 00 00 fa 44 00 00 00 00 00 00 0a 85 81 
0f 5b 3f 00 00 fa 44 00 00 00 00 00 00 0a 85 81 
0f 5b e0 00 00 fa 44 00 00 00 00 00 00 0a 85 81 
0f 5c 48 00 00 fa 44 00 00 00 00 00 00 0a 85 81 
0f 5c 26 00 00 fa 44 00 00 00 00 00 00 0a 85 81 
0f 5d 58 00 00 fa 44 00 00 00 00 00 00 0a 85 81 
0f 5d 5b 00 00 fa 44 00 00 00 00 00 00 0a 85 81 
0f 5d 8e 00 00 fa 44 00 00 00 00 00 00 0a 85 81 
0f 5e 64 00 00 fa 44 00 00 00 00 00 00 0a 85 81 
0f 5e 8f 00 00 fa 44 00 00 00 00 00 00 0a 85 81 
0f 5f 0f 00 00 fa 44 00 00 00 00 00 00 0a 85 81 
0f 5f f4 00 00 fa 44 00 00 00 00 00 00 0a 85 81 
0f 60 b2 00 00 fa 44 00 00 00 00 00 00 0a 85 81 
0f 61 6a 00 00 fa 44 00 00 00 00 00 00 0a 85 81 
0f 62 70 00 00 fa 44 00 00 00 00 00 00 0a 85 81 
0f 63 83 00 00 fa 44 00 00 00 00 00 00 0a 85 81 
0f 64 3c 00 00 fa 44 00 00 00 00 00 00 0a 85 81 
0f 65 0a 00 00 fa 44 00 00 00 00 00 00 0a 85 81 
0f 65 7c 00 00 fa 44 00 00 00 00 00 00 0a 85 81 
0f 67 07 00 00 fa 44 00 00 00 00 00 00 0a 85 81 
0f 67 fa 00 00 fa 44 00 00 00 00 00 00 0a 85 81 
0f 69 13 00 00 fa 44 00 00 00 00 00 00 0a 85 81 
0f 69 cb 00 00 fa 44 00 00 00 00 00 00 0a 85 81 
0f 6b 52 00 00 fa 44 00 00 00 00 00 00 0a 85 81 
0f 6c 97 00 00 fa 44 00 00 00 00 00 00 0a 85 81 
0f 6d 9e 00 00 fa 44 00 00 00 00 00 00 0a 85 81 
0f 6e 9f 00 00 fa 44 00 00 00 00 00 00 0a 85 81 
0f 6f 10 00 00 fa 44 00 00 00 00 00 00 0a 85 81 
0f 70 30 00 00 fa 44 00 00 00 00 00 00 0a 85 81 
0f 70 7c 00 00 fa 44 00 00 00 00 00 00 0a 85 81 
0f 6f fb 00 00 fa 44 00 00 00 00 00 00 0a 85 81 
0f 71 36 00 00 fa 44 00 00 00 00 00 00 0a 85 81 
0f 70 e0 00 00 fa 44 00 00 00 00 00 00 0a 85 81 
0f 6c fc 00 00 fa 44 00 00 00 00 00 00 0a 85 81 
0f 57 2c 00 00 fa 44 00 00 00 00 00 00 0a 85 81 
0f 48 1d 00 00 fa 44 00 00 00 00 00 00 0a 85 81 
0f 41 58 00 00 fa 44 00 00 00 00 00 00 0a 85 81 
0f 3e 9f 00 00 fa 44 00 00 00 00 00 00 0a 85 81 
0f 3e 37 00 00 fa 44 00 00 00 00 00 00 0a 85 81 
0f 3e 00 00 00 fa 44 00 00 00 00 00 00 0a 85 81 
0f 3c b7 00 00 fa 44 00 00 00 00 00 00 0a 85 81 
0f 3c d5 00 00 fa 44 00 00 00 00 00 00 0a 85 81 
0f 3c 97 00 00 fa 44 00 00 00 00 00 00 0a 85 81 
0f 3b 7b 00 00 fa 44 00 00 00 00 00 00 0a 85 81 
0f 3a da 00 00 fa 44 00 00 00 00 00 00 0a 85 81 
0f 39 bd 00 00 fa 44 00 00 00 00 00 00 0a 85 81 
0f 39 5e 00 00 fa 44 00 00 00 00 00 00 0a 85 81 
0f 38 8d 00 00 fa 44 00 00 00 00 00 00 0a 85 81 
0f 38 66 00 00 fa 44 00 00 00 00 00 00 0a 85 81 
0f 37 50 00 00 fa 44 00 00 00 00 00 00 0a 85 81 
0f 35 65 00 00 fa 44 00 00 00 00 00 00 0a 85 81 
0f 34 3a 00 00 fa 44 00 00 00 00 00 00 0a 85 81 
0f 32 d5 00 00 fa 44 00 00 00 00 00 00 0a 85 81 
0f 32 4d 00 00 fa 44 00 00 00 00 00 00 0a 85 81 
0f 31 be 00 00 fa 44 00 00 00 00 00 00 0a 85 81 
0f 31 c4 00 00 fa 44 00 00 00 00 00 00 0a 85 81 
0f 30 89 00 00 fa 44 00 00 00 00 00 00 0a 85 81 
0f 2f b5 00 00 fa 44 00 00 00 00 00 00 0a 85 81 
0f 2e f4 00 00 fa 44 00 00 00 00 00 00 0a 85 81 
0f 2e 14 00 00 fa 44 00 00 00 00 00 00 0a 85 81 
0f 2e 63 00 00 fa 44 00 00 00 00 00 00 0a 85 81 
0f 2f 25 00 00 fa 44 00 00 00 00 00 00 0a 85 81 
0f 2f 31 00 00 fa 44 00 00 00 00 00 00 0a 85 81 
0f 2f 5b 00 00 fa 44 00 00 00 00 00 00 0a 85 81 
0f 2e e2 00 00 fa 44 00 00 00 00 00 00 0a 85 81 
0f 2d 8e 00 00 fa 44 00 00 00 00 00 00 0a 85 81 
0f 2c d3 00 00 fa 44 00 00 00 00 00 00 0a 85 81 
0f 2a 8c 00 00 fa 44 00 00 00 00 00 00 0a 85 81 
0f 29 0f 00 00 fa 44 00 00 00 00 00 00 0a 85 81 
0f 28 c1 00 00 fa 44 00 00 00 00 00 00 0a 85 81 
0f 29 e6 00 00 fa 44 00 00 00 00 00 00 0a 85 81 
0f 2a 96 00 00 fa 44 00 00 00 00 00 00 0a 85 81 
0f 29 f8 00 00 fa 44 00 00 00 00 00 00 0a 85 81 
0f 2a 25 00 00 fa 44 00 00 00 00 00 00 0a 85 81 
0f 29 de 00 00 fa 44 00 00 00 00 00 00 0a 85 81 
0f 29 3e 00 00 fa 44 00 00 00 00 00 00 0a 85 81 
0f 28 ec 00 00 fa 44 00 00 00 00 00 00 0a 85 81 
0f 29 3d 00 00 fa 44 00 00 00 00 00 00 0a 85 81 
0f 29 fc 00 00 fa 44 00 00 00 00 00 00 0a 85 81 
0f 2a 55 00 00 fa 44 00 00 00 00 00 00 0a 85 81 
0f 2b 5e 00 00 fa 44 00 00 00 00 00 00 0a 85 81 
0f 2c 9a 00 00 fa 44 00 00 00 00 00 00 0a 85 81 
0f 2c d4 00 00 fa 44 00 00 00 00 00 00 0a 85 81 
0f 2d 6c 00 00 fa 44 00 00 00 00 00 00 0a 85 81 
0f 2d f0 00 00 fa 44 00 00 00 00 00 00 0a 85 81 
0f 2d 6b 00 00 fa 44 00 00 00 00 00 00 0a 85 81 
0f 2c de 00 00 fa 44 00 00 00 00 00 00 0a 85 81 
0f 2c 12 00 00 fa 44 00 00 00 00 00 00 0a 85 81 
0f 2b b3 00 00 fa 44 00 00 00 00 00 00 0a 85 81 
0f 2a e6 00 00 fa 44 00 00 00 00 00 00 0a 85 81 
0f 2a 10 00 00 fa 44 00 00 00 00 00 00 0a 85 81 
0f 29 06 00 00 fa 44 00 00 00 00 00 00 0a 85 81 
0f 28 98 00 00 fa 44 00 00 00 00 00 00 0a 85 81 
0f 27 d0 00 00 fa 44 00 00 00 00 00 00 0a 85 81 
0f 26 f2 00 00 fa 44 00 00 00 00 00 00 0a 85 81 
0f 26 09 00 00 fa 44 00 00 00 00 00 00 0a 85 81 
0f 25 74 00 00 fa 44 00 00 00 00 00 00 0a 85 81 
0f 25 42 00 00 fa 44 00 00 00 00 00 00 0a 85 81 
0f 24 e5 00 00 fa 44 00 00 00 00 00 00 0a 85 81 
0f 25 00 00 00 fa 44 00 00 00 00 00 00 0a 85 81 
0f 24 c6 00 00 fa 44 00 00 00 00 00 00 0a 85 81 
0f 24 de 00 00 fa 44 00 00 00 00 00 00 0a 85 81 
0f 25 26 00 00 fa 44 00 00 00 00 00 00 0a 85 81 
0f 25 78 00 00 fa 44 00 00 00 00 00 00 0a 85 81 
0f 25 59 00 00 fa 44 00 00 00 00 00 00 0a 85 81 
0f 25 55 00 00 fa 44 00 00 00 00 00 00 0a 85 81 
0f 25 3c 00 00 fa 44 00 00 00 00 00 00 0a 85 81 
0f 25 9a 00 00 fa 44 00 00 00 00 00 00 0a 85 81 
0f 26 87 00 00 fa 44 00 00 00 00 00 00 0a 85 81 
0f 27 44 00 00 fa 44 00 00 00 00 00 00 0a 85 81 
0f 27 b8 00 00 fa 44 00 00 00 00 00 00 0a 85 81 
0f 29 10 00 00 fa 44 00 00 00 00 00 00 0a 85 81 
0f 2a 4b 00 00 fa 44 00 00 00 00 00 00 0a 85 81 
0f 2a e9 00 00 fa 44 00 00 00 00 00 00 0a 85 81 
0f 2b 6e 00 00 fa 44 00 00 00 00 00 00 0a 85 81 
0f 2b df 00 00 fa 44 00 00 00 00 00 00 0a 85 81 
0f 2c 01 00 00 fa 44 00 00 00 00 00 00 0a 85 81 
0f 2b cb 00 00 fa 44 00 00 00 00 00 00 0a 85 81 
0f 2c 0f 00 00 fa 44 00 00 00 00 00 00 0a 85 81 
0f 2c 0d 00 00 fa 44 00 00 00 00 00 00 0a 85 81 
0f 2c 0f 00 00 fa 44 00 00 00 00 00 00 0a 85 81 
0f 2c 65 00 00 fa 44 00 00 00 00 00 00 0a 85 81 
0f 2c cd 00 00 fa 44 00 00 00 00 00 00 0a 85 81 
0f 2d 55 00 00 fa 44 00 00 00 00 00 00 0a 85 81 
0f 2d 46 00 00 fa 44 00 00 00 00 00 00 0a 85 81 
0f 2d e6 00 00 fa 44 00 00 00 00 00 00 0a 85 81 
0f 2d 5f 00 00 fa 44 00 00 00 00 00 00 0a 85 81 
0f 2c ee 00 00 fa 44 00 00 00 00 00 00 0a 85 81 
0f 2c aa 00 00 fa 44 00 00 00 00 00 00 0a 85 81 
0f 2d c8 00 00 fa 44 00 00 00 00 00 00 0a 85 81 
0f 2d 74 00 00 fa 44 00 00 00 00 00 00 0a 85 81 
0f 2e 3e 00 00 fa 44 00 00 00 00 00 00 0a 85 81 
0f 2f 5f 00 00 fa 44 00 00 00 00 00 00 0a 85 81 
0f 30 30 00 00 fa 44 00 00 00 00 00 00 0a 85 81 
0f 31 42 00 00 fa 44 00 00 00 00 00 00 0a 85 81 
0f 31 c5 00 00 fa 44 00 00 00 00 00 00 0a 85 81 
0f 32 3c 00 00 fa 44 00 00 00 00 00 00 0a 85 81 
0f 33 1d 00 00 fa 44 00 00 00 00 00 00 0a 85 81 
0f 33 cc 00 00 fa 44 00 00 00 00 00 00 0a 85 81 
0f 34 f9 00 00 fa 44 00 00 00 00 00 00 0a 85 81 
0f 35 e1 00 00 fa 44 00 00 00 00 00 00 0a 85 81 
0f 36 b5 00 00 fa 44 00 00 00 00 00 00 0a 85 81 
0f 37 77 00 00 fa 44 00 00 00 00 00 00 0a 85 81 
0f 38 74 00 00 fa 44 00 00 00 00 00 00 0a 85 81 
0f 3a 76 00 00 fa 44 00 00 00 00 00 00 0a 85 81 
0f 3c 7e 00 00 fa 44 00 00 00 00 00 00 0a 85 81 
0f 3e 46 00 00 fa 44 00 00 00 00 00 00 0a 85 81 
0f 3f 73 00 00 fa 44 00 00 00 00 00 00 0a 85 81 
0f 40 fc 00 00 fa 44 00 00 00 00 00 00 0a 85 81 
0f 42 0e 00 00 fa 44 00 00 00 00 00 00 0a 85 81 
0f 42 37 00 00 fa 44 00 00 00 00 00 00 0a 85 81 
0f 42 1f 00 00 fa 44 00 00 00 00 00 00 0a 85 81 
0f 41 33 00 00 fa 44 00 00 00 00 00 00 0a 85 81 
0f 40 75 00 00 fa 44 00 00 00 00 00 00 0a 85 81 
0f 3f f4 00 00 fa 44 00 00 00 00 00 00 0a 85 81 
0f 3f a1 00 00 fa 44 00 00 00 00 00 00 0a 85 81 
0f 3f 40 00 00 fa 44 00 00 00 00 00 00 0a 85 81 
0f 3e e6 00 00 fa 44 00 00 00 00 00 00 0a 85 81 
0f 3e 42 00 00 fa 44 00 00 00 00 00 00 0a 85 81 
0f 3d 9d 00 00 fa 44 00 00 00 00 00 00 0a 85 81 
0f 3d 7f 00 00 fa 44 00 00 00 00 00 00 0a 85 81 
0f 3d 9e 00 00 fa 44 00 00 00 00 00 00 0a 85 81 
0f 3d 4d 00 00 fa 44 00 00 00 00 00 00 0a 85 81 
0f 3c e2 00 00 fa 44 00 00 00 00 00 00 0a 85 81 
0f 3d 86 00 00 fa 44 00 00 00 00 00 00 0a 85 81 
0f 3e 43 00 00 fa 44 00 00 00 00 00 00 0a 85 81 
0f 3e c2 00 00 fa 44 00 00 00 00 00 00 0a 85 81 
0f 3f 9e 00 00 fa 44 00 00 00 00 00 00 0a 85 81 
0f 40 8e 00 00 fa 44 00 00 00 00 00 00 0a 85 81 
0f 40 48 00 00 fa 44 00 00 00 00 00 00 0a 85 81 
0f 3f db 00 00 fa 44 00 00 00 00 00 00 0a 85 81 
0f 40 9a 00 00 fa 44 00 00 00 00 00 00 0a 85 81 
0f 40 53 00 00 fa 44 00 00 00 00 00 00 0a 85 81 
0f 3f cb 00 00 fa 44 00 00 00 00 00 00 0a 85 81 
0f 3f e6 00 00 fa 44 00 00 00 00 00 00 0a 85 81 
0f 40 07 00 00 fa 44 00 00 00 00 00 00 0a 85 81 
0f 40 74 00 00 fa 44 00 00 00 00 00 00 0a 85 81 
0f 40 8f 00 00 fa 44 00 00 00 00 00 00 0a 85 81 
0f 40 01 00 00 fa 44 00 00 00 00 00 00 0a 85 81 
0f 3f 37 00 00 fa 44 00 00 00 00 00 00 0a 85 81 
0f 3e 90 00 00 fa 44 00 00 00 00 00 00 0a 85 81 
0f 3e 6a 00 00 fa 44 00 00 00 00 00 00 0a 85 81 
0f 3d f8 00 00 fa 44 00 00 00 00 00 00 0a 85 81 
0f 3d ea 00 00 fa 44 00 00 00 00 00 00 0a 85 81 
0f 3c ec 00 00 fa 44 00 00 00 00 00 00 0a 85 81 
0f 3c 81 00 00 fa 44 00 00 00 00 00 00 0a 85 81 
0f 3c 9d 00 00 fa 44 00 00 00 00 00 00 0a 85 81 
0f 3c 33 00 00 fa 44 00 00 00 00 00 00 0a 85 81 
0f 3c 4b 00 00 fa 44 00 00 00 00 00 00 0a 85 81 
0f 3d 7b 00 00 fa 44 00 00 00 00 00 00 0a 85 81 
0f 3d e3 00 00 fa 44 00 00 00 00 00 00 0a 85 81 
0f 3f 1f 00 00 fa 44 00 00 00 00 00 00 0a 85 81 
0f 3f cd 00 00 fa 44 00 00 00 00 00 00 0a 85 81 
0f 40 c3 00 00 fa 44 00 00 00 00 00 00 0a 85 81 
0f 41 26 00 00 fa 44 00 00 00 00 00 00 0a 85 81 
0f 41 6f 00 00 fa 44 00 00 00 00 00 00 0a 85 81 
0f 41 83 00 00 fa 44 00 00 00 00 00 00 0a 85 81 
0f 41 58 00 00 fa 44 00 00 00 00 00 00 0a 85 81 
0f 40 ef 00 00 fa 44 00 00 00 00 00 00 0a 85 81 
0f 40 a5 00 00 fa 44 00 00 00 00 00 00 0a 85 81 
0f 40 c7 00 00 fa 44 00 00 00 00 00 00 0a 85 81 
0f 3f ea 00 00 fa 44 00 00 00 00 00 00 0a 85 81 
0f 3f 53 00 00 fa 44 00 00 00 00 00 00 0a 85 81 
0f 3f 4a 00 00 fa 44 00 00 00 00 00 00 0a 85 81 
0f 3e dd 00 00 fa 44 00 00 00 00 00 00 0a 85 81 
0f 3e b3 00 00 fa 44 00 00 00 00 00 00 0a 85 81 
0f 3d c7 00 00 fa 44 00 00 00 00 00 00 0a 85 81 
0f 3d 83 00 00 fa 44 00 00 00 00 00 00 0a 85 81 
0f 3c 8e 00 00 fa 44 00 00 00 00 00 00 0a 85 81 
0f 3c 22 00 00 fa 44 00 00 00 00 00 00 0a 85 81 
0f 3b 89 00 00 fa 44 00 00 00 00 00 00 0a 85 81 
0f 3a b0 00 00 fa 44 00 00 00 00 00 00 0a 85 81 
0f 39 ef 00 00 fa 44 00 00 00 00 00 00 0a 85 81 
0f 39 9a 00 00 fa 44 00 00 00 00 00 00 0a 85 81 
0f 38 c2 00 00 fa 44 00 00 00 00 00 00 0a 85 81 
0f 38 ea 00 00 fa 44 00 00 00 00 00 00 0a 85 81 
0f 39 15 00 00 fa 44 00 00 00 00 00 00 0a 85 81 
0f 38 ad 00 00 fa 44 00 00 00 00 00 00 0a 85 81 
0f 38 31 00 00 fa 44 00 00 00 00 00 00 0a 85 81 
0f 38 4d 00 00 fa 44 00 00 00 00 00 00 0a 85 81 
0f 38 00 00 00 fa 44 00 00 00 00 00 00 0a 85 81 
0f 37 63 00 00 fa 44 00 00 00 00 00 00 0a 85 81 
0f 37 42 00 00 fa 44 00 00 00 00 00 00 0a 85 81 
0f 37 45 00 00 fa 44 00 00 00 00 00 00 0a 85 81 
0f 37 0e 00 00 fa 44 00 00 00 00 00 00 0a 85 81 
0f 36 ff 00 00 fa 44 00 00 00 00 00 00 0a 85 81 
0f 37 08 00 00 fa 44 00 00 00 00 00 00 0a 85 81 
0f 37 00 00 00 fa 44 00 00 00 00 00 00 0a 85 81 
0f 36 cf 00 00 fa 44 00 00 00 00 00 00 0a 85 81 
0f 37 d9 00 00 fa 44 00 00 00 00 00 00 0a 85 81 
0f 37 7e 00 00 fa 44 00 00 00 00 00 00 0a 85 81 
0f 38 74 00 00 fa 44 00 00 00 00 00 00 0a 85 81 
0f 37 ff 00 00 fa 44 00 00 00 00 00 00 0a 85 81 
0f 38 62 00 00 fa 44 00 00 00 00 00 00 0a 85 81 
0f 38 84 00 00 fa 44 00 00 00 00 00 00 0a 85 81 
0f 39 55 00 00 fa 44 00 00 00 00 00 00 0a 85 81 
0f 39 3d 00 00 fa 44 00 00 00 00 00 00 0a 85 81 
0f 38 a1 00 00 fa 44 00 00 00 00 00 00 0a 85 81 
0f 38 b3 00 00 fa 44 00 00 00 00 00 00 0a 85 81 
0f 38 f1 00 00 fa 44 00 00 00 00 00 00 0a 85 81 
0f 38 7b 00 00 fa 44 00 00 00 00 00 00 0a 85 81 
0f 38 ba 00 00 fa 44 00 00 00 00 00 00 0a 85 81 
0f 38 fd 00 00 fa 44 00 00 00 00 00 00 0a 85 81 
0f 38 b7 00 00 fa 44 00 00 00 00 00 00 0a 85 81 
0f 38 de 00 00 fa 44 00 00 00 00 00 00 0a 85 81 
0f 38 ba 00 00 fa 44 00 00 00 00 00 00 0a 85 81 
0f 38 cc 00 00 fa 44 00 00 00 00 00 00 0a 85 81 
0f 38 ba 00 00 fa 44 00 00 00 00 00 00 0a 85 81 
0f 38 dc 00 00 fa 44 00 00 00 00 00 00 0a 85 81 
0f 38 e7 00 00 fa 44 00 00 00 00 00 00 0a 85 81 
0f 38 e5 00 00 fa 44 00 00 00 00 00 00 0a 85 81 
0f 38 cf 00 00 fa 44 00 00 00 00 00 00 0a 85 81 
0f 38 fc 00 00 fa 44 00 00 00 00 00 00 0a 85 81 
0f 39 0d 00 00 fa 44 00 00 00 00 00 00 0a 85 81 
0f 39 b3 00 00 fa 44 00 00 00 00 00 00 0a 85 81 
0f 39 45 00 00 fa 44 00 00 00 00 00 00 0a 85 81 
0f 39 d9 00 00 fa 44 00 00 00 00 00 00 0a 85 81 
0f 39 5d 00 00 fa 44 00 00 00 00 00 00 0a 85 81 
0f 39 4d 00 00 fa 44 00 00 00 00 00 00 0a 85 81 
0f 38 e8 00 00 fa 44 00 00 00 00 00 00 0a 85 81 
0f 39 46 00 00 fa 44 00 00 00 00 00 00 0a 85 81 
0f 38 e2 00 00 fa 44 00 00 00 00 00 00 0a 85 81 
0f 39 0c 00 00 fa 44 00 00 00 00 00 00 0a 85 81 
0f 39 43 00 00 fa 44 00 00 00 00 00 00 0a 85 81 
0f 3a ae 00 00 fa 44 00 00 00 00 00 00 0a 85 81 
0f 3a 95 00 00 fa 44 00 00 00 00 00 00 0a 85 81 
0f 3b 11 00 00 fa 44 00 00 00 00 00 00 0a 85 81 
0f 3b e7 00 00 fa 44 00 00 00 00 00 00 0a 85 81 
0f 3c 5e 00 00 fa 44 00 00 00 00 00 00 0a 85 81 
0f 3b c8 00 00 fa 44 00 00 00 00 00 00 0a 85 81 
0f 3c ad 00 00 fa 44 00 00 00 00 00 00 0a 85 81 
0f 3c c1 00 00 fa 44 00 00 00 00 00 00 0a 85 81 
0f 3c 4a 00 00 fa 44 00 00 00 00 00 00 0a 85 81 
0f 3c d6 00 00 fa 44 00 00 00 00 00 00 0a 85 81 
0f 3d 9e 00 00 fa 44 00 00 00 00 00 00 0a 85 81 
0f 3e e0 00 00 fa 44 00 00 00 00 00 00 0a 85 81 
0f 3e 5c 00 00 fa 44 00 00 00 00 00 00 0a 85 81 
0f 3e f4 00 00 fa 44 00 00 00 00 00 00 0a 85 81 
0f 3f 6d 00 00 fa 44 00 00 00 00 00 00 0a 85 81 
0f 40 20 00 00 fa 44 00 00 00 00 00 00 0a 85 81 
0f 40 7a 00 00 fa 44 00 00 00 00 00 00 0a 85 81 
0f 41 d6 00 00 fa 44 00 00 00 00 00 00 0a 85 81 
0f 43 ee 00 00 fa 44 00 00 00 00 00 00 0a 85 81 
0f 44 91 00 00 fa 44 00 00 00 00 00 00 0a 85 81 
0f 46 48 00 00 fa 44 00 00 00 00 00 00 0a 85 81 
0f 46 7b 00 00 fa 44 00 00 00 00 00 00 0a 85 81 
0f 46 d2 00 00 fa 44 00 00 00 00 00 00 0a 85 81 
0f 46 ec 00 00 fa 44 00 00 00 00 00 00 0a 85 81 
0f 47 3a 00 00 fa 44 00 00 00 00 00 00 0a 85 81 
0f 46 dc 00 00 fa 44 00 00 00 00 00 00 0a 85 81 
0f 46 e7 00 00 fa 44 00 00 00 00 00 00 0a 85 81 
0f 46 e6 00 00 fa 44 00 00 00 00 00 00 0a 85 81 
0f 46 be 00 00 fa 44 00 00 00 00 00 00 0a 85 81 
0f 46 d1 00 00 fa 44 00 00 00 00 00 00 0a 85 81 
0f 47 0f 00 00 fa 44 00 00 00 00 00 00 0a 85 81 
0f 46 d8 00 00 fa 44 00 00 00 00 00 00 0a 85 81 
0f 46 87 00 00 fa 44 00 00 00 00 00 00 0a 85 81 
0f 46 e2 00 00 fa 44 00 00 00 00 00 00 0a 85 81 
0f 47 6e 00 00 fa 44 00 00 00 00 00 00 0a 85 81 
0f 47 66 00 00 fa 44 00 00 00 00 00 00 0a 85 81 
0f 47 43 00 00 fa 44 00 00 00 00 00 00 0a 85 81 
0f 47 a2 00 00 fa 44 00 00 00 00 00 00 0a 85 81 
0f 47 66 00 00 fa 44 00 00 00 00 00 00 0a 85 81 
0f 47 cd 00 00 fa 44 00 00 00 00 00 00 0a 85 81 
0f 48 72 00 00 fa 44 00 00 00 00 00 00 0a 85 81 
0f 49 11 00 00 fa 44 00 00 00 00 00 00 0a 85 81 
0f 49 86 00 00 fa 44 00 00 00 00 00 00 0a 85 81 
0f 49 a6 00 00 fa 44 00 00 00 00 00 00 0a 85 81 
0f 49 e4 00 00 fa 44 00 00 00 00 00 00 0a 85 81 
0f 4a 60 71 25 00 00 7a 66 8e 70 00 00 10 00 81 
0f 4a 0c 00 00 80 00 00 00 0a 85 00 00 fa 44 81 
0f 49 fc 00 00 80 00 00 00 0a 85 00 00 fa 44 81 
0f 4a 0d 00 00 80 00 00 00 0a 85 00 00 fa 44 81 
0f 4a da 00 00 80 00 00 00 0a 85 00 00 fa 44 81 
0f 4a 13 00 00 80 00 00 00 0a 85 00 00 fa 44 81 
0f 4a 6f 00 00 80 00 00 00 0a 85 00 00 fa 44 81 
0f 4a 64 00 00 80 00 00 00 0a 85 00 00 fa 44 81 
0f 4a fe 00 00 80 00 00 00 0a 85 00 00 fa 44 81 
0f 4b 94 00 00 80 00 00 00 0a 85 00 00 fa 44 81 
0f 4b ad 00 00 80 00 00 00 0a 85 00 00 fa 44 81 
0f 4c 65 00 00 80 00 00 00 0a 85 00 00 fa 44 81 
0f 4c 75 00 00 80 00 00 00 0a 85 00 00 fa 44 81 
0f 4c c2 00 00 80 00 00 00 0a 85 00 00 fa 44 81 
0f 4d 21 00 00 80 00 00 00 0a 85 00 00 fa 44 81 
0f 4d 7b 00 00 80 00 00 00 0a 85 00 00 fa 44 81 
0f 4e 04 00 00 80 00 00 00 0a 85 00 00 fa 44 81 
0f 4d fd 00 00 80 00 00 00 0a 85 00 00 fa 44 81 
0f 4e 32 00 00 80 00 00 00 0a 85 00 00 fa 44 81 
0f 4e c9 00 00 80 00 00 00 0a 85 00 00 fa 44 81 
0f 4f 11 00 00 80 00 00 00 0a 85 00 00 fa 44 81 
0f 4f 64 00 00 80 00 00 00 0a 85 00 00 fa 44 81 
0f 4f ad 00 00 80 00 00 00 0a 85 00 00 fa 44 81 
0f 4f e1 00 00 80 00 00 00 0a 85 00 00 fa 44 81 
0f 50 15 00 00 80 00 00 00 0a 85 00 00 fa 44 81 
0f 50 b2 00 00 80 00 00 00 0a 85 00 00 fa 44 81 
0f 50 72 00 00 80 00 00 00 0a 85 00 00 fa 44 81 
0f 50 9e 00 00 80 00 00 00 0a 85 00 00 fa 44 81 
0f 51 3b 00 00 80 00 00 00 0a 85 00 00 fa 44 81 
0f 51 16 00 00 80 00 00 00 0a 85 00 00 fa 44 81 
0f 51 53 00 00 80 00 00 00 0a 85 00 00 fa 44 81 
0f 51 b8 00 00 80 00 00 00 0a 85 00 00 fa 44 81 
0f 51 ee 00 00 80 00 00 00 0a 85 00 00 fa 44 81 
0f 52 67 00 00 80 00 00 00 0a 85 00 00 fa 44 81 
0f 52 d5 00 00 80 00 00 00 0a 85 00 00 fa 44 81 
0f 51 de 00 00 80 00 00 00 0a 85 00 00 fa 44 81 
0f 52 12 00 00 80 00 00 00 0a 85 00 00 fa 44 81 
0f 52 c4 00 00 80 00 00 00 0a 85 00 00 fa 44 81 
0f 52 91 00 00 80 00 00 00 0a 85 00 00 fa 44 81 
0f 52 b8 00 00 80 00 00 00 0a 85 00 00 fa 44 81 
0f 52 72 00 00 80 00 00 00 0a 85 00 00 fa 44 81 
0f 52 94 00 00 80 00 00 00 0a 85 00 00 fa 44 81 
0f 52 5d 00 00 80 00 00 00 0a 85 00 00 fa 44 81 
0f 51 ef 00 00 80 00 00 00 0a 85 00 00 fa 44 81 
0f 52 6b 00 00 80 00 00 00 0a 85 00 00 fa 44 81 
0f 52 05 00 00 80 00 00 00 0a 85 00 00 fa 44 81 
0f 52 ba 00 00 80 00 00 00 0a 85 00 00 fa 44 81 
0f 52 01 00 00 80 00 00 00 0a 85 00 00 fa 44 81 
0f 52 56 00 00 80 00 00 00 0a 85 00 00 fa 44 81 
0f 52 7e 00 00 80 00 00 00 0a 85 00 00 fa 44 81 
0f 52 a8 00 00 80 00 00 00 0a 85 00 00 fa 44 81 
0f 52 88 00 00 80 00 00 00 0a 85 00 00 fa 44 81 
0f 52 e8 00 00 80 00 00 00 0a 85 00 00 fa 44 81 
0f 53 2c 00 00 80 00 00 00 0a 85 00 00 fa 44 81 
0f 53 f9 00 00 80 00 00 00 0a 85 00 00 fa 44 81 
0f 54 15 00 00 80 00 00 00 0a 85 00 00 fa 44 81 
0f 53 e6 00 00 80 00 00 00 0a 85 00 00 fa 44 81 
0f 54 72 00 00 80 00 00 00 0a 85 00 00 fa 44 81 
0f 54 48 00 00 80 00 00 00 0a 85 00 00 fa 44 81 
0f 54 4f 00 00 80 00 00 00 0a 85 00 00 fa 44 81 
0f 54 ad 00 00 80 00 00 00 0a 85 00 00 fa 44 81 
0f 54 a2 00 00 80 00 00 00 0a 85 00 00 fa 44 81 
0f 54 ab 00 00 80 00 00 00 0a 85 00 00 fa 44 81 
0f 54 c6 00 00 80 00 00 00 0a 85 00 00 fa 44 81 
0f 55 2a 00 00 80 00 00 00 0a 85 00 00 fa 44 81 
0f 55 41 00 00 80 00 00 00 0a 85 00 00 fa 44 81 
0f 55 7c 00 00 80 00 00 00 0a 85 00 00 fa 44 81 
0f 56 1c 00 00 80 00 00 00 0a 85 00 00 fa 44 81 
0f 55 86 00 00 80 00 00 00 0a 85 00 00 fa 44 81 
0f 55 fa 00 00 80 00 00 00 0a 85 00 00 fa 44 81 
0f 56 1b 00 00 80 00 00 00 0a 85 00 00 fa 44 81 
0f 56 6c 00 00 80 00 00 00 0a 85 00 00 fa 44 81 
0f 56 89 00 00 80 00 00 00 0a 85 00 00 fa 44 81 
0f 56 6a 00 00 80 00 00 00 0a 85 00 00 fa 44 81 
0f 56 7a 00 00 80 00 00 00 0a 85 00 00 fa 44 81 
0f 56 da 00 00 80 00 00 00 0a 85 00 00 fa 44 81 
0f 57 02 00 00 80 00 00 00 0a 85 00 00 fa 44 81 
0f 56 ef 00 00 80 00 00 00 0a 85 00 00 fa 44 81 
0f 57 c6 00 00 80 00 00 00 0a 85 00 00 fa 44 81 
0f 57 7d 00 00 80 00 00 00 0a 85 00 00 fa 44 81 
0f 57 b8 00 00 80 00 00 00 0a 85 00 00 fa 44 81 
0f 57 98 00 00 80 00 00 00 0a 85 00 00 fa 44 81 
0f 58 0b 00 00 80 00 00 00 0a 85 00 00 fa 44 81 
0f 58 2a 00 00 80 00 00 00 0a 85 00 00 fa 44 81 
0f 58 44 00 00 80 00 00 00 0a 85 00 00 fa 44 81 
0f 58 ea 00 00 80 00 00 00 0a 85 00 00 fa 44 81 
0f 58 8f 00 00 80 00 00 00 0a 85 00 00 fa 44 81 
0f 59 2f 00 00 80 00 00 00 0a 85 00 00 fa 44 81 
0f 59 34 00 00 80 00 00 00 0a 85 00 00 fa 44 81 
0f 59 b0 00 00 80 00 00 00 0a 85 00 00 fa 44 81 
0f 59 3f 00 00 80 00 00 00 0a 85 00 00 fa 44 81 
0f 59 96 00 00 80 00 00 00 0a 85 00 00 fa 44 81 
0f 59 c6 00 00 80 00 00 00 0a 85 00 00 fa 44 81 
0f 5a 08 00 00 80 00 00 00 0a 85 00 00 fa 44 81 
0f 5a 63 00 00 80 00 00 00 0a 85 00 00 fa 44 81 
0f 5a 17 00 00 80 00 00 00 0a 85 00 00 fa 44 81 
0f 5a cc 00 00 80 00 00 00 0a 85 00 00 fa 44 81 
0f 5b 06 00 00 80 00 00 00 0a 85 00 00 fa 44 81 
0f 5b 5a 00 00 80 00 00 00 0a 85 00 00 fa 44 81 
0f 5c 52 00 00 80 00 00 00 0a 85 00 00 fa 44 81 
0f 5c 2c 00 00 80 00 00 00 0a 85 00 00 fa 44 81 
0f 5d 07 00 00 80 00 00 00 0a 85 00 00 fa 44 81 
0f 5d 2f 00 00 80 00 00 00 0a 85 00 00 fa 44 81 
0f 5d 12 00 00 80 00 00 00 0a 85 00 00 fa 44 81 
0f 5d 55 00 00 80 00 00 00 0a 85 00 00 fa 44 81 
0f 5d fb 00 00 80 00 00 00 0a 85 00 00 fa 44 81 
0f 5d d7 00 00 80 00 00 00 0a 85 00 00 fa 44 81 
0f 5e e7 00 00 80 00 00 00 0a 85 00 00 fa 44 81 
0f 5e b7 00 00 80 00 00 00 0a 85 00 00 fa 44 81 
0f 5e a8 00 00 80 00 00 00 0a 85 00 00 fa 44 81 
0f 5e 4e 00 00 80 00 00 00 0a 85 00 00 fa 44 81 
0f 5f 48 00 00 80 00 00 00 0a 85 00 00 fa 44 81 
0f 5e dd 00 00 80 00 00 00 0a 85 00 00 fa 44 81 
0f 5f 4c 00 00 80 00 00 00 0a 85 00 00 fa 44 81 
0f 5f b1 00 00 80 00 00 00 0a 85 00 00 fa 44 81 
0f 60 36 00 00 80 00 00 00 0a 85 00 00 fa 44 81 
0f 60 7a 00 00 80 00 00 00 0a 85 00 00 fa 44 81 
0f 60 dd 00 00 80 00 00 00 0a 85 00 00 fa 44 81 
0f 61 b4 00 00 80 00 00 00 0a 85 00 00 fa 44 81 
0f 61 b2 00 00 80 00 00 00 0a 85 00 00 fa 44 81 
0f 61 fd 00 00 80 00 00 00 0a 85 00 00 fa 44 81 
0f 63 2c 00 00 80 00 00 00 0a 85 00 00 fa 44 81 
0f 63 37 00 00 80 00 00 00 0a 85 00 00 fa 44 81 
0f 63 f8 00 00 80 00 00 00 0a 85 00 00 fa 44 81 
0f 65 90 00 00 80 00 00 00 0a 85 00 00 fa 44 81 
0f 66 e7 00 00 80 00 00 00 0a 85 00 00 fa 44 81 
0f 68 b0 00 00 80 00 00 00 0a 85 00 00 fa 44 81 
0f 6a a8 00 00 80 00 00 00 0a 85 00 00 fa 44 81 
0f 6e 30 00 00 80 00 00 00 0a 85 00 00 fa 44 81 
0f 71 32 00 00 80 00 00 00 0a 85 00 00 fa 44 81 
0f 74 17 00 00 80 00 00 00 0a 85 00 00 fa 44 81 
0f 77 42 00 00 80 00 00 00 0a 85 00 00 fa 44 81 
0f 7a 94 00 00 80 00 00 00 0a 85 00 00 fa 44 81 
0f 7c 9c 00 00 80 00 00 00 0a 85 00 00 fa 44 81 
0f 7f 7c 00 00 80 00 00 00 0a 85 00 00 fa 44 81 
0f 82 b6 00 00 80 00 00 00 0a 85 00 00 fa 44 81 
0f 84 7c 00 00 80 00 00 00 0a 85 00 00 fa 44 81 
0f 86 89 00 00 80 00 00 00 0a 85 00 00 fa 44 81 
0f 88 3d 00 00 80 00 00 00 0a 85 00 00 fa 44 81 
0f 8a 09 00 00 80 00 00 00 0a 85 00 00 fa 44 81 
0f 8b dc 00 00 80 00 00 00 0a 85 00 00 fa 44 81 
0f 8e 79 00 00 80 00 00 00 0a 85 00 00 fa 44 81 
0f 90 cd 00 00 80 00 00 00 0a 85 00 00 fa 44 81 
0f 92 2f 00 00 80 00 00 00 0a 85 00 00 fa 44 81 
0f 94 29 00 00 80 00 00 00 0a 85 00 00 fa 44 81 
0f 95 42 00 00 80 00 00 00 0a 85 00 00 fa 44 81 
0f 96 bc 00 00 80 00 00 00 0a 85 00 00 fa 44 81 
0f 98 ab 00 00 80 00 00 00 0a 85 00 00 fa 44 81 
0f 9b 94 00 00 80 00 00 00 0a 85 00 00 fa 44 81 
0f 9d b5 00 00 80 00 00 00 0a 85 00 00 fa 44 81 
0f a1 7d 00 00 80 00 00 00 0a 85 00 00 fa 44 81 
0f a4 fb 00 00 80 00 00 00 0a 85 00 00 fa 44 81 
0f a8 34 00 00 80 00 00 00 0a 85 00 00 fa 44 81 
0f aa d9 00 00 80 00 00 00 0a 85 00 00 fa 44 81 
0f ae 84 00 00 80 00 00 00 0a 85 00 00 fa 44 81 
0f b0 bd 00 00 80 00 00 00 0a 85 00 00 fa 44 81 
0f b4 c2 00 00 80 00 00 00 0a 85 00 00 fa 44 81 
0f b8 07 00 00 80 00 00 00 0a 85 00 00 fa 44 81 
0f ba f8 00 00 80 00 00 00 0a 85 00 00 fa 44 81 
0f bd d9 00 00 80 00 00 00 0a 85 00 00 fa 44 81 
0f c1 61 00 00 80 00 00 00 0a 85 00 00 fa 44 81 
0f c4 31 00 00 80 00 00 00 0a 85 00 00 fa 44 81 
0f c6 a2 00 00 80 00 00 00 0a 85 00 00 fa 44 81 
0f ca 38 00 00 80 00 00 00 0a 85 00 00 fa 44 81 
0f cc 88 00 00 80 00 00 00 0a 85 00 00 fa 44 81 
0f cf 87 00 00 80 00 00 00 0a 85 00 00 fa 44 81 
0f d2 59 00 00 80 00 00 00 0a 85 00 00 fa 44 81 
0f d3 8e 00 00 80 00 00 00 0a 85 00 00 fa 44 81 
0f d4 e5 00 00 80 00 00 00 0a 85 00 00 fa 44 81 
0f d5 dd 00 00 80 00 00 00 0a 85 00 00 fa 44 81 
0f d7 b1 00 00 80 00 00 00 0a 85 00 00 fa 44 81 
0f d9 a3 00 00 80 00 00 00 0a 85 00 00 fa 44 81 
0f db 7f 00 00 80 00 00 00 0a 85 00 00 fa 44 81 
0f dd a9 00 00 80 00 00 00 0a 85 00 00 fa 44 81 
0f e0 3c 00 00 80 00 00 00 0a 85 00 00 fa 44 81 
0f e3 26 00 00 80 00 00 00 0a 85 00 00 fa 44 81 
0f e5 a2 00 00 80 00 00 00 0a 85 00 00 fa 44 81 
0f e7 c5 00 00 80 00 00 00 0a 85 00 00 fa 44 81 
0f e9 e4 00 00 80 00 00 00 0a 85 00 00 fa 44 81 
0f eb 9c 00 00 80 00 00 00 0a 85 00 00 fa 44 81 
0f ed 97 00 00 80 00 00 00 0a 85 00 00 fa 44 81 
0f ee c7 00 00 80 00 00 00 0a 85 00 00 fa 44 81 
0f ef 52 00 00 80 00 00 00 0a 85 00 00 fa 44 81 
0f f0 17 00 00 80 00 00 00 0a 85 00 00 fa 44 81 
0f f0 08 00 00 80 00 00 00 0a 85 00 00 fa 44 81 
0f f0 61 00 00 80 00 00 00 0a 85 00 00 fa 44 81 
0f f1 b2 00 00 80 00 00 00 0a 85 00 00 fa 44 81 
0f f1 ce 00 00 80 00 00 00 0a 85 00 00 fa 44 81 
0f f3 b8 00 00 80 00 00 00 0a 85 00 00 fa 44 81 
0f f4 c3 00 00 80 00 00 00 0a 85 00 00 fa 44 81 
0f f5 08 00 00 80 00 00 00 0a 85 00 00 fa 44 81 
0f f5 c0 00 00 80 00 00 00 0a 85 00 00 fa 44 81 
0f f5 89 00 00 80 00 00 00 0a 85 00 00 fa 44 81 
0f f5 64 00 00 80 00 00 00 0a 85 00 00 fa 44 81 
0f f5 17 00 00 80 00 00 00 0a 85 00 00 fa 44 81 
0f f5 74 00 00 80 00 00 00 0a 85 00 00 fa 44 81 
0f f6 00 00 00 80 00 00 00 0a 85 00 00 fa 44 81 
0f f5 8f 00 00 80 00 00 00 0a 85 00 00 fa 44 81 
0f f5 6b 00 00 80 00 00 00 0a 85 00 00 fa 44 81 
0f f5 3a 00 00 80 00 00 00 0a 85 00 00 fa 44 81 
0f f5 67 00 00 80 00 00 00 0a 85 00 00 fa 44 81 
0f f5 2d 00 00 80 00 00 00 0a 85 00 00 fa 44 81 
0f f5 46 00 00 80 00 00 00 0a 85 00 00 fa 44 81 
0f f6 2b 00 00 80 00 00 00 0a 85 00 00 fa 44 81 
0f f6 7b 00 00 80 00 00 00 0a 85 00 00 fa 44 81 
0f f7 1b 00 00 80 00 00 00 0a 85 00 00 fa 44 81 
0f f7 91 00 00 80 00 00 00 0a 85 00 00 fa 44 81 
0f f7 e6 00 00 80 00 00 00 0a 85 00 00 fa 44 81 
0f f8 ae 00 00 80 00 00 00 0a 85 00 00 fa 44 81 
0f f8 e8 00 00 80 00 00 00 0a 85 00 00 fa 44 81 
0f f9 72 00 00 80 00 00 00 0a 85 00 00 fa 44 81 
0f f9 6b 00 00 80 00 00 00 0a 85 00 00 fa 44 81 
0f f9 01 00 00 80 00 00 00 0a 85 00 00 fa 44 81 
0f fa 7d 00 00 80 00 00 00 0a 85 00 00 fa 44 81 
0f fa af 00 00 80 00 00 00 0a 85 00 00 fa 44 81 
0f fb 03 00 00 80 00 00 00 0a 85 00 00 fa 44 81 
0f fa a6 00 00 80 00 00 00 0a 85 00 00 fa 44 81 
0f fb 1e 00 00 80 00 00 00 0a 85 00 00 fa 44 81 
0f fb 1e 00 00 80 00 00 00 0a 85 00 00 fa 44 81 
0f fb ab 00 00 80 00 00 00 0a 85 00 00 fa 44 81 
0f fb 5a 00 00 80 00 00 00 0a 85 00 00 fa 44 81 
0f fc 31 00 00 80 00 00 00 0a 85 00 00 fa 44 81 
0f fc 89 00 00 80 00 00 00 0a 85 00 00 fa 44 81 
0f fd 44 00 00 80 00 00 00 0a 85 00 00 fa 44 81 
0f fe 42 00 00 80 00 00 00 0a 85 00 00 fa 44 81 
0f fe 7a 00 00 80 00 00 00 0a 85 00 00 fa 44 81 
0f ff 80 00 00 80 00 00 00 0a 85 00 00 fa 44 81 
0f ff e9 00 00 80 00 00 00 0a 85 00 00 fa 44 81 
10 00 7a 00 00 80 00 00 00 0a 85 00 00 fa 44 81 
10 00 f0 00 00 80 00 00 00 0a 85 00 00 fa 44 81 
10 00 de 00 00 80 00 00 00 0a 85 00 00 fa 44 81 
10 01 17 00 00 80 00 00 00 0a 85 00 00 fa 44 81 
10 02 2f 00 00 80 00 00 00 0a 85 00 00 fa 44 81 
10 02 a8 00 00 80 00 00 00 0a 85 00 00 fa 44 81 
10 03 50 00 00 80 00 00 00 0a 85 00 00 fa 44 81 
10 03 ca 00 00 80 00 00 00 0a 85 00 00 fa 44 81 
10 04 6c 00 00 80 00 00 00 0a 85 00 00 fa 44 81 
10 04 b2 00 00 80 00 00 00 0a 85 00 00 fa 44 81 
10 05 43 00 00 80 00 00 00 0a 85 00 00 fa 44 81 
10 04 b4 00 00 80 00 00 00 0a 85 00 00 fa 44 81 
10 04 d9 00 00 80 00 00 00 0a 85 00 00 fa 44 81 
10 05 bd 00 00 80 00 00 00 0a 85 00 00 fa 44 81 
10 06 0b 00 00 80 00 00 00 0a 85 00 00 fa 44 81 
10 06 06 00 00 80 00 00 00 0a 85 00 00 fa 44 81 
10 06 41 00 00 80 00 00 00 0a 85 00 00 fa 44 81 
10 08 12 00 00 80 00 00 00 0a 85 00 00 fa 44 81 
10 08 15 00 00 80 00 00 00 0a 85 00 00 fa 44 81 
10 08 f7 00 00 80 00 00 00 0a 85 00 00 fa 44 81 
10 09 2d 00 00 80 00 00 00 0a 85 00 00 fa 44 81 
10 09 8a 00 00 80 00 00 00 0a 85 00 00 fa 44 81 
10 09 e3 00 00 80 00 00 00 0a 85 00 00 fa 44 81 
10 09 fd 00 00 80 00 00 00 0a 85 00 00 fa 44 81 
10 0a 25 00 00 80 00 00 00 0a 85 00 00 fa 44 81 
10 0a 0c 00 00 80 00 00 00 0a 85 00 00 fa 44 81 
10 0a 61 00 00 80 00 00 00 0a 85 00 00 fa 44 81 
10 0a 6d 00 00 80 00 00 00 0a 85 00 00 fa 44 81 
10 0a a7 00 00 80 00 00 00 0a 85 00 00 fa 44 81 
10 0a ce 00 00 80 00 00 00 0a 85 00 00 fa 44 81 
10 0b 33 00 00 80 00 00 00 0a 85 00 00 fa 44 81 
10 0c 66 00 00 80 00 00 00 0a 85 00 00 fa 44 81 
10 0c 3f 00 00 80 00 00 00 0a 85 00 00 fa 44 81 
10 0c 2a 00 00 80 00 00 00 0a 85 00 00 fa 44 81 
10 0d 13 00 00 80 00 00 00 0a 85 00 00 fa 44 81 
10 0d b5 00 00 80 00 00 00 0a 85 00 00 fa 44 81 
10 0e 02 00 00 80 00 00 00 0a 85 00 00 fa 44 81 
10 0d e6 00 00 80 00 00 00 0a 85 00 00 fa 44 81 
10 0e 47 00 00 80 00 00 00 0a 85 00 00 fa 44 81 
10 0e 16 00 00 80 00 00 00 0a 85 00 00 fa 44 81 
10 0e 28 00 00 80 00 00 00 0a 85 00 00 fa 44 81 
10 0e 79 00 00 80 00 00 00 0a 85 00 00 fa 44 81 
10 0e 3b 00 00 80 00 00 00 0a 85 00 00 fa 44 81 
10 0e 9b 00 00 80 00 00 00 0a 85 00 00 fa 44 81 
10 0e 8d 00 00 80 00 00 00 0a 85 00 00 fa 44 81 
10 0e ab 00 00 80 00 00 00 0a 85 00 00 fa 44 81 
10 0e 48 00 00 80 00 00 00 0a 85 00 00 fa 44 81 
10 0d e3 00 00 80 00 00 00 0a 85 00 00 fa 44 81 
10 0e 15 00 00 80 00 00 00 0a 85 00 00 fa 44 81 
10 0d d0 00 00 80 00 00 00 0a 85 00 00 fa 44 81 
10 0d e2 00 00 80 00 00 00 0a 85 00 00 fa 44 81 
10 0e 9a 00 00 80 00 00 00 0a 85 00 00 fa 44 81 
10 0e ce 00 00 80 00 00 00 0a 85 00 00 fa 44 81 
10 0f de 00 00 80 00 00 00 0a 85 00 00 fa 44 81 
10 0f c2 00 00 80 00 00 00 0a 85 00 00 fa 44 81 
10 0f 26 00 00 80 00 00 00 0a 85 00 00 fa 44 81 
10 0e d2 00 00 80 00 00 00 0a 85 00 00 fa 44 81 
10 0e ad 00 00 80 00 00 00 0a 85 00 00 fa 44 81 
10 0e 8d 00 00 80 00 00 00 0a 85 00 00 fa 44 81 
10 0e 82 00 00 80 00 00 00 0a 85 00 00 fa 44 81 
10 0e 77 00 00 80 00 00 00 0a 85 00 00 fa 44 81 
10 0e c6 00 00 80 00 00 00 0a 85 00 00 fa 44 81 
10 0e cb 00 00 80 00 00 00 0a 85 00 00 fa 44 81 
10 0e 7d 00 00 80 00 00 00 0a 85 00 00 fa 44 81 
10 0e 2a 00 00 80 00 00 00 0a 85 00 00 fa 44 81 
10 0d 68 00 00 80 00 00 00 0a 85 00 00 fa 44 81 
10 0d 65 00 00 80 00 00 00 0a 85 00 00 fa 44 81 
10 0c df 00 00 80 00 00 00 0a 85 00 00 fa 44 81 
10 0c be 00 00 80 00 00 00 0a 85 00 00 fa 44 81 
10 0c 95 00 00 80 00 00 00 0a 85 00 00 fa 44 81 
10 0c 5b 00 00 80 00 00 00 0a 85 00 00 fa 44 81 
10 0c 72 00 00 80 00 00 00 0a 85 00 00 fa 44 81 
10 0c 0e 00 00 80 00 00 00 0a 85 00 00 fa 44 81 
10 0c c4 00 00 80 00 00 00 0a 85 00 00 fa 44 81 
10 0c 5e 00 00 80 00 00 00 0a 85 00 00 fa 44 81 
10 0c 60 00 00 80 00 00 00 0a 85 00 00 fa 44 81 
10 0c c4 00 00 80 00 00 00 0a 85 00 00 fa 44 81 
10 0d 58 00 00 80 00 00 00 0a 85 00 00 fa 44 81 
10 0c da 00 00 80 00 00 00 0a 85 00 00 fa 44 81 
10 0d 04 00 00 80 00 00 00 0a 85 00 00 fa 44 81 
10 0c bf 00 00 80 00 00 00 0a 85 00 00 fa 44 81 
10 0c a2 00 00 80 00 00 00 0a 85 00 00 fa 44 81 
10 0c c6 00 00 80 00 00 00 0a 85 00 00 fa 44 81 
10 0c cf 00 00 80 00 00 00 0a 85 00 00 fa 44 81 
10 0d 1e 00 00 80 00 00 00 0a 85 00 00 fa 44 81 
10 0d 17 00 00 80 00 00 00 0a 85 00 00 fa 44 81 
10 0d 65 00 00 80 00 00 00 0a 85 00 00 fa 44 81 
10 0d 8b 00 00 80 00 00 00 0a 85 00 00 fa 44 81 
10 0d c4 00 00 80 00 00 00 0a 85 00 00 fa 44 81 
10 0e a1 00 00 80 00 00 00 0a 85 00 00 fa 44 81 
10 0e 2c 00 00 80 00 00 00 0a 85 00 00 fa 44 81 
10 0e 70 00 00 80 00 00 00 0a 85 00 00 fa 44 81 
10 0f 29 00 00 80 00 00 00 0a 85 00 00 fa 44 81 
10 0e f1 00 00 80 00 00 00 0a 85 00 00 fa 44 81 
10 0f 22 00 00 80 00 00 00 0a 85 00 00 fa 44 81 
10 0f ed 00 00 80 00 00 00 0a 85 00 00 fa 44 81 
10 0f c4 00 00 80 00 00 00 0a 85 00 00 fa 44 81 
10 0f eb 00 00 80 00 00 00 0a 85 00 00 fa 44 81 
10 10 24 00 00 80 00 00 00 0a 85 00 00 fa 44 81 
10 10 0b 00 00 80 00 00 00 0a 85 00 00 fa 44 81 
10 10 12 00 00 80 00 00 00 0a 85 00 00 fa 44 81 
10 10 ed 00 00 80 00 00 00 0a 85 00 00 fa 44 81 
10 10 82 00 00 80 00 00 00 0a 85 00 00 fa 44 81 
10 10 cb 00 00 80 00 00 00 0a 85 00 00 fa 44 81 
10 10 8d 00 00 80 00 00 00 0a 85 00 00 fa 44 81 
10 10 0d 00 00 80 00 00 00 0a 85 00 00 fa 44 81 
10 0f d7 00 00 80 00 00 00 0a 85 00 00 fa 44 81 
10 0f 7f 00 00 80 00 00 00 0a 85 00 00 fa 44 81 
10 10 52 00 00 80 00 00 00 0a 85 00 00 fa 44 81 
10 10 08 00 00 80 00 00 00 0a 85 00 00 fa 44 81 
10 0f 73 00 00 80 00 00 00 0a 85 00 00 fa 44 81 
10 0f 9d 00 00 80 00 00 00 0a 85 00 00 fa 44 81 
10 0f fb 00 00 80 00 00 00 0a 85 00 00 fa 44 81 
10 10 b7 00 00 80 00 00 00 0a 85 00 00 fa 44 81 
10 10 a2 00 00 80 00 00 00 0a 85 00 00 fa 44 81 
10 11 58 00 00 80 00 00 00 0a 85 00 00 fa 44 81 
10 11 1a 00 00 80 00 00 00 0a 85 00 00 fa 44 81 
10 11 6d 00 00 80 00 00 00 0a 85 00 00 fa 44 81 
10 10 b1 00 00 80 00 00 00 0a 85 00 00 fa 44 81 
10 11 17 00 00 80 00 00 00 0a 85 00 00 fa 44 81 
10 10 ed 00 00 80 00 00 00 0a 85 00 00 fa 44 81 
10 10 f3 00 00 80 00 00 00 0a 85 00 00 fa 44 81 
10 11 17 00 00 80 00 00 00 0a 85 00 00 fa 44 81 
10 12 00 00 00 80 00 00 00 0a 85 00 00 fa 44 81 
10 11 4f 00 00 80 00 00 00 0a 85 00 00 fa 44 81 
10 11 94 00 00 80 00 00 00 0a 85 00 00 fa 44 81 
10 11 e3 00 00 80 00 00 00 0a 85 00 00 fa 44 81 
10 12 8e 00 00 80 00 00 00 0a 85 00 00 fa 44 81 
10 12 b7 00 00 80 00 00 00 0a 85 00 00 fa 44 81 
10 13 fc 00 00 80 00 00 00 0a 85 00 00 fa 44 81 
10 13 b8 00 00 80 00 00 00 0a 85 00 00 fa 44 81 
10 13 09 00 00 80 00 00 00 0a 85 00 00 fa 44 81 
10 13 65 00 00 80 00 00 00 0a 85 00 00 fa 44 81 
10 12 9c 00 00 80 00 00 00 0a 85 00 00 fa 44 81 
10 12 f5 00 00 80 00 00 00 0a 85 00 00 fa 44 81 
10 13 2f 00 00 80 00 00 00 0a 85 00 00 fa 44 81 
10 13 cd 00 00 80 00 00 00 0a 85 00 00 fa 44 81 
10 13 cb 00 00 80 00 00 00 0a 85 00 00 fa 44 81 
10 13 fb 00 00 80 00 00 00 0a 85 00 00 fa 44 81 
10 14 72 00 00 80 00 00 00 0a 85 00 00 fa 44 81 
10 14 36 00 00 80 00 00 00 0a 85 00 00 fa 44 81 
10 15 0a 00 00 80 00 00 00 0a 85 00 00 fa 44 81 
10 15 14 00 00 80 00 00 00 0a 85 00 00 fa 44 81 
10 14 6b 00 00 80 00 00 00 0a 85 00 00 fa 44 81 
10 14 d7 00 00 80 00 00 00 0a 85 00 00 fa 44 81 
10 14 89 00 00 80 00 00 00 0a 85 00 00 fa 44 81 
10 15 01 00 00 80 00 00 00 0a 85 00 00 fa 44 81 
10 14 f2 00 00 80 00 00 00 0a 85 00 00 fa 44 81 
10 15 2b 00 00 80 00 00 00 0a 85 00 00 fa 44 81 
10 15 ba 00 00 80 00 00 00 0a 85 00 00 fa 44 81 
10 15 50 00 00 80 00 00 00 0a 85 00 00 fa 44 81 
10 15 2a 00 00 80 00 00 00 0a 85 00 00 fa 44 81 
10 15 60 00 00 80 00 00 00 0a 85 00 00 fa 44 81 
10 15 cf 00 00 80 00 00 00 0a 85 00 00 fa 44 81 
10 16 0d 00 00 80 00 00 00 0a 85 00 00 fa 44 81 
10 16 6e 00 00 80 00 00 00 0a 85 00 00 fa 44 81 
10 16 93 00 00 80 00 00 00 0a 85 00 00 fa 44 81 
10 16 36 00 00 80 00 00 00 0a 85 00 00 fa 44 81 
10 16 d2 00 00 80 00 00 00 0a 85 00 00 fa 44 81 
10 17 49 00 00 80 00 00 00 0a 85 00 00 fa 44 81 
10 17 56 00 00 80 00 00 00 0a 85 00 00 fa 44 81 
10 16 f6 00 00 80 00 00 00 0a 85 00 00 fa 44 81 
10 17 0f 00 00 80 00 00 00 0a 85 00 00 fa 44 81 
10 17 47 00 00 80 00 00 00 0a 85 00 00 fa 44 81 
10 16 cb 00 00 80 00 00 00 0a 85 00 00 fa 44 81 
10 16 8f 00 00 80 00 00 00 0a 85 00 00 fa 44 81 
10 16 6a 00 00 80 00 00 00 0a 85 00 00 fa 44 81 
10 16 f5 00 00 80 00 00 00 0a 85 00 00 fa 44 81 
10 17 45 00 00 80 00 00 00 0a 85 00 00 fa 44 81 
10 17 59 00 00 80 00 00 00 0a 85 00 00 fa 44 81 
10 17 8d 00 00 80 00 00 00 0a 85 00 00 fa 44 81 
10 17 e0 00 00 80 00 00 00 0a 85 00 00 fa 44 81 
10 16 d9 00 00 80 00 00 00 0a 85 00 00 fa 44 81 
10 16 a6 00 00 80 00 00 00 0a 85 00 00 fa 44 81 
10 16 80 00 00 80 00 00 00 0a 85 00 00 fa 44 81 
10 16 b0 00 00 80 00 00 00 0a 85 00 00 fa 44 81 
10 16 ed 00 00 80 00 00 00 0a 85 00 00 fa 44 81 
10 17 20 00 00 80 00 00 00 0a 85 00 00 fa 44 81 
10 17 4b 00 00 80 00 00 00 0a 85 00 00 fa 44 81 
10 17 91 00 00 80 00 00 00 0a 85 00 00 fa 44 81 
10 17 6d 00 00 80 00 00 00 0a 85 00 00 fa 44 81 
10 17 d3 00 00 80 00 00 00 0a 85 00 00 fa 44 81 
10 18 4e 00 00 80 00 00 00 0a 85 00 00 fa 44 81 
10 17 ad 00 00 80 00 00 00 0a 85 00 00 fa 44 81 
10 17 cc 00 00 80 00 00 00 0a 85 00 00 fa 44 81 
10 18 33 00 00 80 00 00 00 0a 85 00 00 fa 44 81 
10 18 70 00 00 80 00 00 00 0a 85 00 00 fa 44 81 
10 18 04 00 00 80 00 00 00 0a 85 00 00 fa 44 81 
10 18 24 00 00 80 00 00 00 0a 85 00 00 fa 44 81 
10 18 3c 00 00 80 00 00 00 0a 85 00 00 fa 44 81 
10 18 4f 00 00 80 00 00 00 0a 85 00 00 fa 44 81 
10 18 25 00 00 80 00 00 00 0a 85 00 00 fa 44 81 
10 18 a9 00 00 80 00 00 00 0a 85 00 00 fa 44 81 
10 19 0d 00 00 80 00 00 00 0a 85 00 00 fa 44 81 
10 18 dc 00 00 80 00 00 00 0a 85 00 00 fa 44 81 
10 19 0c 00 00 80 00 00 00 0a 85 00 00 fa 44 81 
10 19 72 00 00 80 00 00 00 0a 85 00 00 fa 44 81 
10 19 d0 00 00 80 00 00 00 0a 85 00 00 fa 44 81 
10 19 fc 00 00 80 00 00 00 0a 85 00 00 fa 44 81 
10 1a 29 00 00 80 00 00 00 0a 85 00 00 fa 44 81 
10 1a eb 00 00 80 00 00 00 0a 85 00 00 fa 44 81 
10 1a 64 00 00 80 00 00 00 0a 85 00 00 fa 44 81 
10 1a f0 00 00 80 00 00 00 0a 85 00 00 fa 44 81 
10 1a cd 00 00 80 00 00 00 0a 85 00 00 fa 44 81 
10 1a 8e 00 00 80 00 00 00 0a 85 00 00 fa 44 81 
10 1b 20 00 00 80 00 00 00 0a 85 00 00 fa 44 81 
10 1a dd 00 00 80 00 00 00 0a 85 00 00 fa 44 81 
10 1b 35 00 00 80 00 00 00 0a 85 00 00 fa 44 81 
10 1a 99 00 00 80 00 00 00 0a 85 00 00 fa 44 81 
10 1a e6 00 00 80 00 00 00 0a 85 00 00 fa 44 81 
10 1b 39 00 00 80 00 00 00 0a 85 00 00 fa 44 81 
10 1a aa 00 00 80 00 00 00 0a 85 00 00 fa 44 81 
10 1b 18 00 00 80 00 00 00 0a 85 00 00 fa 44 81 
10 1a 75 00 00 80 00 00 00 0a 85 00 00 fa 44 81 
10 1a 5c 00 00 80 00 00 00 0a 85 00 00 fa 44 81 
10 1a 2e 00 00 80 00 00 00 0a 85 00 00 fa 44 81 
10 1a ef 00 00 80 00 00 00 0a 85 00 00 fa 44 81 
10 1b 1e 00 00 80 00 00 00 0a 85 00 00 fa 44 81 
10 1b 87 00 00 80 00 00 00 0a 85 00 00 fa 44 81 
10 1b 7e 00 00 80 00 00 00 0a 85 00 00 fa 44 81 
10 1b 94 00 00 80 00 00 00 0a 85 00 00 fa 44 81 
10 1b a4 00 00 80 00 00 00 0a 85 00 00 fa 44 81 
10 1c 15 00 00 80 00 00 00 0a 85 00 00 fa 44 81 
10 1c 24 00 00 80 00 00 00 0a 85 00 00 fa 44 81 
10 1b f1 00 00 80 00 00 00 0a 85 00 00 fa 44 81 
10 1c 5e 00 00 80 00 00 00 0a 85 00 00 fa 44 81 
10 1c 81 00 00 80 00 00 00 0a 85 00 00 fa 44 81 
10 1c ac 00 00 80 00 00 00 0a 85 00 00 fa 44 81 
10 1c a4 00 00 80 00 00 00 0a 85 00 00 fa 44 81 
10 1c 90 00 00 80 00 00 00 0a 85 00 00 fa 44 81 
10 1c 7b 00 00 80 00 00 00 0a 85 00 00 fa 44 81 
10 1c 69 00 00 00 00 00 00 fa 44 00 00 80 00 81 
10 1c 69 00 00 80 00 00 00 00 00 00 00 fa 44 81 
10 1c 77 00 00 80 00 00 00 00 00 00 00 fa 44 81 
10 1c 49 00 00 80 00 00 00 00 00 00 00 fa 44 81 
10 1c 71 00 00 80 00 00 00 00 00 00 00 fa 44 81 
10 1c b3 00 00 80 00 00 00 00 00 00 00 fa 44 81 
10 1d 6c 00 00 80 00 00 00 00 00 00 00 fa 44 81 
10 1d 3e 00 00 80 00 00 00 00 00 00 00 fa 44 81 
10 1d 34 00 00 80 00 00 00 00 00 00 00 fa 44 81 
10 1d ea 00 00 80 00 00 00 00 00 00 00 fa 44 81 
10 1e 68 00 00 80 00 00 00 00 00 00 00 fa 44 81 
10 1d ea 00 00 80 00 00 00 00 00 00 00 fa 44 81 
10 1d ee 00 00 80 00 00 00 00 00 00 00 fa 44 81 
10 1f 1c 00 00 80 00 00 00 00 00 00 00 fa 44 81 
10 1e 77 00 00 80 00 00 00 00 00 00 00 fa 44 81 
10 1e 6f 00 00 80 00 00 00 00 00 00 00 fa 44 81 
10 1f 05 00 00 80 00 00 00 00 00 00 00 fa 44 81 
10 1e 62 00 00 80 00 00 00 00 00 00 00 fa 44 81 
10 1e 5e 00 00 80 00 00 00 00 00 00 00 fa 44 81 
10 1e a6 00 00 80 00 00 00 00 00 00 00 fa 44 81 
10 1f 12 00 00 80 00 00 00 00 00 00 00 fa 44 81 
10 1f 6f 00 00 80 00 00 00 00 00 00 00 fa 44 81 
10 1f 3e 00 00 80 00 00 00 00 00 00 00 fa 44 81 
10 1f 71 00 00 80 00 00 00 00 00 00 00 fa 44 81 
10 1f cb 00 00 80 00 00 00 00 00 00 00 fa 44 81 
10 1f 67 00 00 80 00 00 00 00 00 00 00 fa 44 81 
10 20 28 00 00 80 00 00 00 00 00 00 00 fa 44 81 
10 20 2f 00 00 80 00 00 00 00 00 00 00 fa 44 81 
10 20 6c 00 00 80 00 00 00 00 00 00 00 fa 44 81 
10 21 0c 00 00 80 00 00 00 00 00 00 00 fa 44 81 
10 21 51 00 00 80 00 00 00 00 00 00 00 fa 44 81 
10 21 b6 00 00 80 00 00 00 00 00 00 00 fa 44 81 
10 21 b6 00 00 80 00 00 00 00 00 00 00 fa 44 81 
10 21 8a 00 00 80 00 00 00 00 00 00 00 fa 44 81 
10 21 49 00 00 80 00 00 00 00 00 00 00 fa 44 81 
10 21 93 00 00 80 00 00 00 00 00 00 00 fa 44 81 
10 21 8e 00 00 80 00 00 00 00 00 00 00 fa 44 81 
10 21 cc 00 00 80 00 00 00 00 00 00 00 fa 44 81 
10 22 33 00 00 80 00 00 00 00 00 00 00 fa 44 81 
10 22 43 00 00 80 00 00 00 00 00 00 00 fa 44 81 
10 21 af 00 00 80 00 00 00 00 00 00 00 fa 44 81 
10 21 dc 00 00 80 00 00 00 00 00 00 00 fa 44 81 
10 21 c4 00 00 80 00 00 00 00 00 00 00 fa 44 81 
10 21 c8 00 00 80 00 00 00 00 00 00 00 fa 44 81 
10 21 d4 00 00 80 00 00 00 00 00 00 00 fa 44 81 
10 22 36 00 00 80 00 00 00 00 00 00 00 fa 44 81 
10 22 19 00 00 80 00 00 00 00 00 00 00 fa 44 81 
10 22 5d 00 00 80 00 00 00 00 00 00 00 fa 44 81 
10 22 bc 00 00 80 00 00 00 00 00 00 00 fa 44 81 
10 22 6a 00 00 80 00 00 00 00 00 00 00 fa 44 81 
10 23 04 00 00 80 00 00 00 00 00 00 00 fa 44 81 
10 22 a4 00 00 80 00 00 00 00 00 00 00 fa 44 81 
10 23 6c 00 00 80 00 00 00 00 00 00 00 fa 44 81 
10 24 21 00 00 80 00 00 00 00 00 00 00 fa 44 81 
10 24 24 00 00 80 00 00 00 00 00 00 00 fa 44 81 
10 24 15 00 00 80 00 00 00 00 00 00 00 fa 44 81 
10 23 cd 00 00 80 00 00 00 00 00 00 00 fa 44 81 
10 24 d1 00 00 80 00 00 00 00 00 00 00 fa 44 81 
10 23 e3 00 00 80 00 00 00 00 00 00 00 fa 44 81 
10 24 4a 00 00 80 00 00 00 00 00 00 00 fa 44 81 
10 24 68 00 00 80 00 00 00 00 00 00 00 fa 44 81 
10 23 e2 00 00 80 00 00 00 00 00 00 00 fa 44 81 
10 24 67 00 00 80 00 00 00 00 00 00 00 fa 44 81 
10 24 a6 00 00 80 00 00 00 00 00 00 00 fa 44 81 
10 25 5b 00 00 80 00 00 00 00 00 00 00 fa 44 81 
10 25 cb 00 00 80 00 00 00 00 00 00 00 fa 44 81 
10 25 5c 00 00 80 00 00 00 00 00 00 00 fa 44 81 
10 25 32 00 00 80 00 00 00 00 00 00 00 fa 44 81 
10 25 46 00 00 80 00 00 00 00 00 00 00 fa 44 81 
10 25 89 00 00 80 00 00 00 00 00 00 00 fa 44 81 
10 25 6c 00 00 80 00 00 00 00 00 00 00 fa 44 81 
10 25 a0 00 00 80 00 00 00 00 00 00 00 fa 44 81 
10 25 b6 00 00 80 00 00 00 00 00 00 00 fa 44 81 
10 26 55 00 00 80 00 00 00 00 00 00 00 fa 44 81 
10 26 33 00 00 80 00 00 00 00 00 00 00 fa 44 81 
10 26 ac 00 00 80 00 00 00 00 00 00 00 fa 44 81 
10 26 93 00 00 80 00 00 00 00 00 00 00 fa 44 81 
10 26 d5 00 00 80 00 00 00 00 00 00 00 fa 44 81 
10 25 b5 00 00 80 00 00 00 00 00 00 00 fa 44 81 
10 25 cd 00 00 80 00 00 00 00 00 00 00 fa 44 81 
10 25 75 00 00 80 00 00 00 00 00 00 00 fa 44 81 
10 25 fe 00 00 80 00 00 00 00 00 00 00 fa 44 81 
10 25 ba 00 00 80 00 00 00 00 00 00 00 fa 44 81 
10 25 af 00 00 80 00 00 00 00 00 00 00 fa 44 81 
10 25 b0 00 00 80 00 00 00 00 00 00 00 fa 44 81 
10 25 dc 00 00 80 00 00 00 00 00 00 00 fa 44 81 
10 25 95 00 00 80 00 00 00 00 00 00 00 fa 44 81 
10 25 48 00 00 80 00 00 00 00 00 00 00 fa 44 81 
10 25 e4 00 00 80 00 00 00 00 00 00 00 fa 44 81 
10 25 33 00 00 80 00 00 00 00 00 00 00 fa 44 81 
10 25 45 00 00 80 00 00 00 00 00 00 00 fa 44 81 
10 25 6d 00 00 80 00 00 00 00 00 00 00 fa 44 81 
10 26 0f 00 00 80 00 00 00 00 00 00 00 fa 44 81 
10 25 d7 00 00 80 00 00 00 00 00 00 00 fa 44 81 
10 25 be 00 00 80 00 00 00 00 00 00 00 fa 44 81 
10 25 d2 00 00 80 00 00 00 00 00 00 00 fa 44 81 
10 25 88 00 00 80 00 00 00 00 00 00 00 fa 44 81 
10 25 7b 00 00 80 00 00 00 00 00 00 00 fa 44 81 
10 25 66 00 00 80 00 00 00 00 00 00 00 fa 44 81 
10 25 a3 00 00 80 00 00 00 00 00 00 00 fa 44 81 
10 25 83 00 00 80 00 00 00 00 00 00 00 fa 44 81 
10 25 6c 00 00 80 00 00 00 00 00 00 00 fa 44 81 
10 26 cf 00 00 80 00 00 00 00 00 00 00 fa 44 81 
10 26 bf 00 00 80 00 00 00 00 00 00 00 fa 44 81 
10 26 61 00 00 80 00 00 00 00 00 00 00 fa 44 81 
10 26 89 00 00 80 00 00 00 00 00 00 00 fa 44 81 
10 26 6b 00 00 80 00 00 00 00 00 00 00 fa 44 81 
10 26 c2 00 00 80 00 00 00 00 00 00 00 fa 44 81 
10 26 5f 00 00 80 00 00 00 00 00 00 00 fa 44 81 
10 26 4b 00 00 80 00 00 00 00 00 00 00 fa 44 81 
10 26 57 00 00 80 00 00 00 00 00 00 00 fa 44 81 
10 27 27 00 00 80 00 00 00 00 00 00 00 fa 44 81 
10 26 ac 00 00 80 00 00 00 00 00 00 00 fa 44 81 
10 26 95 00 00 80 00 00 00 00 00 00 00 fa 44 81 
10 27 6a 00 00 80 00 00 00 00 00 00 00 fa 44 81 
10 27 5b 00 00 80 00 00 00 00 00 00 00 fa 44 81 
10 27 76 00 00 80 00 00 00 00 00 00 00 fa 44 81 
10 27 6a 00 00 80 00 00 00 00 00 00 00 fa 44 81 
10 27 31 00 00 80 00 00 00 00 00 00 00 fa 44 81 
10 27 26 00 00 80 00 00 00 00 00 00 00 fa 44 81 
10 27 6c 00 00 80 00 00 00 00 00 00 00 fa 44 81 
10 27 3f 00 00 80 00 00 00 00 00 00 00 fa 44 81 
10 28 5b 00 00 80 00 00 00 00 00 00 00 fa 44 81 
10 28 2b 00 00 80 00 00 00 00 00 00 00 fa 44 81 
10 28 4c 00 00 80 00 00 00 00 00 00 00 fa 44 81 
10 29 42 00 00 80 00 00 00 00 00 00 00 fa 44 81 
10 28 9b 00 00 80 00 00 00 00 00 00 00 fa 44 81 
10 28 9b 00 00 80 00 00 00 00 00 00 00 fa 44 81 
10 29 10 00 00 80 00 00 00 00 00 00 00 fa 44 81 
10 28 e0 00 00 80 00 00 00 00 00 00 00 fa 44 81 
10 28 ed 00 00 80 00 00 00 00 00 00 00 fa 44 81 
10 29 a3 00 00 80 00 00 00 00 00 00 00 fa 44 81 
10 28 ea 00 00 80 00 00 00 00 00 00 00 fa 44 81 
10 29 22 00 00 80 00 00 00 00 00 00 00 fa 44 81 
10 29 50 00 00 80 00 00 00 00 00 00 00 fa 44 81 
10 29 7d 00 00 80 00 00 00 00 00 00 00 fa 44 81 
10 29 cb 00 00 80 00 00 00 00 00 00 00 fa 44 81 
10 29 cc 00 00 80 00 00 00 00 00 00 00 fa 44 81 
10 2a 07 00 00 80 00 00 00 00 00 00 00 fa 44 81 
10 2a 66 00 00 80 00 00 00 00 00 00 00 fa 44 81 
10 2a 71 00 00 80 00 00 00 00 00 00 00 fa 44 81 
10 2a d1 00 00 80 00 00 00 00 00 00 00 fa 44 81 
10 2b c2 00 00 80 00 00 00 00 00 00 00 fa 44 81 
10 2b 28 00 00 80 00 00 00 00 00 00 00 fa 44 81 
10 2b 21 00 00 80 00 00 00 00 00 00 00 fa 44 81 
10 2b 4b 00 00 80 00 00 00 00 00 00 00 fa 44 81 
10 2b 6d 00 00 80 00 00 00 00 00 00 00 fa 44 81 
10 2b 86 00 00 80 00 00 00 00 00 00 00 fa 44 81 
10 2b 4f 00 00 80 00 00 00 00 00 00 00 fa 44 81 
10 2b 5b 00 00 80 00 00 00 00 00 00 00 fa 44 81 
10 2b 16 00 00 80 00 00 00 00 00 00 00 fa 44 81 
10 2b 1f 00 00 80 00 00 00 00 00 00 00 fa 44 81 
10 2b a5 00 00 80 00 00 00 00 00 00 00 fa 44 81 
10 2b 93 00 00 80 00 00 00 00 00 00 00 fa 44 81 
10 2c 47 00 00 80 00 00 00 00 00 00 00 fa 44 81 
10 2c b1 00 00 80 00 00 00 00 00 00 00 fa 44 81 
10 2c b6 00 00 80 00 00 00 00 00 00 00 fa 44 81 
10 2c ce 00 00 80 00 00 00 00 00 00 00 fa 44 81 
10 2c db 00 00 80 00 00 00 00 00 00 00 fa 44 81 
10 2c 64 00 00 80 00 00 00 00 00 00 00 fa 44 81 
10 2c ad 00 00 80 00 00 00 00 00 00 00 fa 44 81 
10 2c e7 00 00 80 00 00 00 00 00 00 00 fa 44 81 
10 2c f8 00 00 80 00 00 00 00 00 00 00 fa 44 81 
10 2c c4 00 00 80 00 00 00 00 00 00 00 fa 44 81 
10 2c ca 00 00 80 00 00 00 00 00 00 00 fa 44 81 
10 2c e1 00 00 80 00 00 00 00 00 00 00 fa 44 81 
10 2c 85 00 00 80 00 00 00 00 00 00 00 fa 44 81 
10 2c d4 00 00 80 00 00 00 00 00 00 00 fa 44 81 
10 2d 43 00 00 80 00 00 00 00 00 00 00 fa 44 81 
10 2d 7b 00 00 80 00 00 00 00 00 00 00 fa 44 81 
10 2d d1 00 00 80 00 00 00 00 00 00 00 fa 44 81 
10 2e 11 00 00 80 00 00 00 00 00 00 00 fa 44 81 
10 2e 15 00 00 80 00 00 00 00 00 00 00 fa 44 81 
10 2e 06 00 00 80 00 00 00 00 00 00 00 fa 44 81 
10 2e 89 00 00 80 00 00 00 00 00 00 00 fa 44 81 
10 2e 88 00 00 80 00 00 00 00 00 00 00 fa 44 81 
10 2f 29 00 00 80 00 00 00 00 00 00 00 fa 44 81 
10 2e db 00 00 80 00 00 00 00 00 00 00 fa 44 81 
10 2e cf 00 00 80 00 00 00 00 00 00 00 fa 44 81 
10 2e e9 00 00 80 00 00 00 00 00 00 00 fa 44 81 
10 2e aa 00 00 80 00 00 00 00 00 00 00 fa 44 81 
10 2e 83 00 00 80 00 00 00 00 00 00 00 fa 44 81 
10 2e 85 00 00 80 00 00 00 00 00 00 00 fa 44 81 
10 2e e9 00 00 80 00 00 00 00 00 00 00 fa 44 81 
10 2e 4c 00 00 80 00 00 00 00 00 00 00 fa 44 81 
10 2d bf 00 00 80 00 00 00 00 00 00 00 fa 44 81 
10 2d f4 00 00 80 00 00 00 00 00 00 00 fa 44 81 
10 2d f9 00 00 80 00 00 00 00 00 00 00 fa 44 81 
10 2e 68 00 00 80 00 00 00 00 00 00 00 fa 44 81 
10 2e 98 00 00 80 00 00 00 00 00 00 00 fa 44 81 
10 2f 4a 00 00 80 00 00 00 00 00 00 00 fa 44 81 
10 2f 39 00 00 80 00 00 00 00 00 00 00 fa 44 81 
10 2f 25 00 00 80 00 00 00 00 00 00 00 fa 44 81 
10 2f 5a 00 00 80 00 00 00 00 00 00 00 fa 44 81 
10 2f df 00 00 80 00 00 00 00 00 00 00 fa 44 81 
10 2f 9f 00 00 80 00 00 00 00 00 00 00 fa 44 81 
10 2f 4e 00 00 80 00 00 00 00 00 00 00 fa 44 81 
10 2f af 00 00 80 00 00 00 00 00 00 00 fa 44 81 
10 2f b4 00 00 80 00 00 00 00 00 00 00 fa 44 81 
10 30 32 00 00 80 00 00 00 00 00 00 00 fa 44 81 
10 31 61 00 00 80 00 00 00 00 00 00 00 fa 44 81 
10 30 94 00 00 80 00 00 00 00 00 00 00 fa 44 81 
10 31 4d 00 00 80 00 00 00 00 00 00 00 fa 44 81 
10 31 21 00 00 80 00 00 00 00 00 00 00 fa 44 81 
10 30 cb 00 00 80 00 00 00 00 00 00 00 fa 44 81 
10 31 23 00 00 80 00 00 00 00 00 00 00 fa 44 81 
10 31 59 00 00 80 00 00 00 00 00 00 00 fa 44 81 
10 31 5e 00 00 80 00 00 00 00 00 00 00 fa 44 81 
10 32 2b 00 00 80 00 00 00 00 00 00 00 fa 44 81 
10 31 6f 00 00 80 00 00 00 00 00 00 00 fa 44 81 
10 31 80 00 00 80 00 00 00 00 00 00 00 fa 44 81 
10 31 79 00 00 80 00 00 00 00 00 00 00 fa 44 81 
10 31 85 00 00 80 00 00 00 00 00 00 00 fa 44 81 
10 31 af 00 00 80 00 00 00 00 00 00 00 fa 44 81 
10 31 98 00 00 80 00 00 00 00 00 00 00 fa 44 81 
10 32 32 00 00 80 00 00 00 00 00 00 00 fa 44 81 
10 31 98 00 00 80 00 00 00 00 00 00 00 fa 44 81 
10 31 a5 00 00 80 00 00 00 00 00 00 00 fa 44 81 
10 31 50 00 00 80 00 00 00 00 00 00 00 fa 44 81 
10 31 7d 00 00 80 00 00 00 00 00 00 00 fa 44 81 
10 31 a8 00 00 80 00 00 00 00 00 00 00 fa 44 81 
10 31 7b 00 00 80 00 00 00 00 00 00 00 fa 44 81 
10 31 d7 00 00 80 00 00 00 00 00 00 00 fa 44 81 
10 31 bd 00 00 80 00 00 00 00 00 00 00 fa 44 81 
10 33 1f 00 00 80 00 00 00 00 00 00 00 fa 44 81 
10 32 75 00 00 80 00 00 00 00 00 00 00 fa 44 81 
10 32 5c 00 00 80 00 00 00 00 00 00 00 fa 44 81 
10 32 cc 00 00 80 00 00 00 00 00 00 00 fa 44 81 
10 33 1c 00 00 80 00 00 00 00 00 00 00 fa 44 81 
10 32 97 00 00 80 00 00 00 00 00 00 00 fa 44 81 
10 32 82 00 00 80 00 00 00 00 00 00 00 fa 44 81 
10 32 b1 00 00 80 00 00 00 00 00 00 00 fa 44 81 
10 32 ae 00 00 80 00 00 00 00 00 00 00 fa 44 81 
10 32 ae 00 00 80 00 00 00 00 00 00 00 fa 44 81 
10 33 35 00 00 80 00 00 00 00 00 00 00 fa 44 81 
10 33 3a 00 00 80 00 00 00 00 00 00 00 fa 44 81 
10 33 2c 00 00 80 00 00 00 00 00 00 00 fa 44 81 
10 33 41 00 00 80 00 00 00 00 00 00 00 fa 44 81 
10 33 ab 00 00 80 00 00 00 00 00 00 00 fa 44 81 
10 33 9f 00 00 80 00 00 00 00 00 00 00 fa 44 81 
10 33 9f 00 00 80 00 00 00 00 00 00 00 fa 44 81 
10 33 8c 00 00 80 00 00 00 00 00 00 00 fa 44 81 
10 33 c6 00 00 80 00 00 00 00 00 00 00 fa 44 81 
10 34 81 00 00 80 00 00 00 00 00 00 00 fa 44 81 
10 34 c0 00 00 80 00 00 00 00 00 00 00 fa 44 81 
10 34 b8 00 00 80 00 00 00 00 00 00 00 fa 44 81 
10 34 f3 00 00 80 00 00 00 00 00 00 00 fa 44 81 
10 35 58 00 00 80 00 00 00 00 00 00 00 fa 44 81 
10 35 5a 00 00 80 00 00 00 00 00 00 00 fa 44 81 
10 35 72 00 00 80 00 00 00 00 00 00 00 fa 44 81 
10 36 89 00 00 80 00 00 00 00 00 00 00 fa 44 81 
10 35 e9 00 00 80 00 00 00 00 00 00 00 fa 44 81 
10 36 55 00 00 80 00 00 00 00 00 00 00 fa 44 81 
10 35 fc 00 00 80 00 00 00 00 00 00 00 fa 44 81 
10 36 58 00 00 80 00 00 00 00 00 00 00 fa 44 81 
10 36 66 00 00 80 00 00 00 00 00 00 00 fa 44 81 
10 36 89 00 00 80 00 00 00 00 00 00 00 fa 44 81 
10 37 12 00 00 80 00 00 00 00 00 00 00 fa 44 81 
10 36 74 00 00 80 00 00 00 00 00 00 00 fa 44 81 
10 36 ac 00 00 80 00 00 00 00 00 00 00 fa 44 81 
10 37 29 00 00 80 00 00 00 00 00 00 00 fa 44 81 
10 36 a4 00 00 80 00 00 00 00 00 00 00 fa 44 81 
10 36 9d 00 00 80 00 00 00 00 00 00 00 fa 44 81 
10 37 56 00 00 80 00 00 00 00 00 00 00 fa 44 81 
10 37 21 00 00 80 00 00 00 00 00 00 00 fa 44 81 
10 37 93 00 00 80 00 00 00 00 00 00 00 fa 44 81 
10 38 98 00 00 80 00 00 00 00 00 00 00 fa 44 81 
10 37 c3 00 00 80 00 00 00 00 00 00 00 fa 44 81 
10 38 42 00 00 80 00 00 00 00 00 00 00 fa 44 81 
10 38 a3 00 00 80 00 00 00 00 00 00 00 fa 44 81 
10 38 f5 00 00 80 00 00 00 00 00 00 00 fa 44 81 
10 39 d8 00 00 80 00 00 00 00 00 00 00 fa 44 81 
10 39 9a 00 00 80 00 00 00 00 00 00 00 fa 44 81 
10 39 12 00 00 80 00 00 00 00 00 00 00 fa 44 81 
10 38 af 00 00 80 00 00 00 00 00 00 00 fa 44 81 
10 38 c4 00 00 80 00 00 00 00 00 00 00 fa 44 81 
10 39 1e 00 00 80 00 00 00 00 00 00 00 fa 44 81 
10 39 2f 00 00 80 00 00 00 00 00 00 00 fa 44 81 
10 39 45 00 00 80 00 00 00 00 00 00 00 fa 44 81 
10 39 7e 00 00 80 00 00 00 00 00 00 00 fa 44 81 
10 3a 80 00 00 80 00 00 00 00 00 00 00 fa 44 81 
10 39 b0 00 00 80 00 00 00 00 00 00 00 fa 44 81 
10 39 e0 00 00 80 00 00 00 00 00 00 00 fa 44 81 
10 3a 08 00 00 80 00 00 00 00 00 00 00 fa 44 81 
10 39 ad 00 00 80 00 00 00 00 00 00 00 fa 44 81 
10 39 5b 00 00 80 00 00 00 00 00 00 00 fa 44 81 
10 39 48 00 00 80 00 00 00 00 00 00 00 fa 44 81 
10 39 77 00 00 80 00 00 00 00 00 00 00 fa 44 81 
10 39 68 00 00 80 00 00 00 00 00 00 00 fa 44 81 
10 39 a0 00 00 80 00 00 00 00 00 00 00 fa 44 81 
10 3a 0b 00 00 80 00 00 00 00 00 00 00 fa 44 81 
10 3a 14 00 00 80 00 00 00 00 00 00 00 fa 44 81 
10 3a 33 00 00 80 00 00 00 00 00 00 00 fa 44 81 
10 3a f6 00 00 80 00 00 00 00 00 00 00 fa 44 81 
10 3a d6 00 00 80 00 00 00 00 00 00 00 fa 44 81 
10 3a 63 00 00 80 00 00 00 00 00 00 00 fa 44 81 
10 3a 66 00 00 80 00 00 00 00 00 00 00 fa 44 81 
10 39 f5 00 00 80 00 00 00 00 00 00 00 fa 44 81 
10 3a 00 00 00 80 00 00 00 00 00 00 00 fa 44 81 
10 39 fa 00 00 80 00 00 00 00 00 00 00 fa 44 81 
10 3a 0f 00 00 80 00 00 00 00 00 00 00 fa 44 81 
10 39 e6 00 00 80 00 00 00 00 00 00 00 fa 44 81 
10 3a 41 00 00 80 00 00 00 00 00 00 00 fa 44 81 
10 3a 68 00 00 80 00 00 00 00 00 00 00 fa 44 81 
10 3a 3a 00 00 80 00 00 00 00 00 00 00 fa 44 81 
10 3a a4 00 00 80 00 00 00 00 00 00 00 fa 44 81 
10 3a d3 00 00 80 00 00 00 00 00 00 00 fa 44 81 
10 3a b8 00 00 80 00 00 00 00 00 00 00 fa 44 81 
10 3a 96 00 00 80 00 00 00 00 00 00 00 fa 44 81 
10 3a 97 00 00 80 00 00 00 00 00 00 00 fa 44 81 
10 3a b1 00 00 80 00 00 00 00 00 00 00 fa 44 81 
10 3a cf 00 00 80 00 00 00 00 00 00 00 fa 44 81 
10 3a e4 00 00 80 00 00 00 00 00 00 00 fa 44 81 
10 3b 13 00 00 80 00 00 00 00 00 00 00 fa 44 81 
10 3b 08 00 00 80 00 00 00 00 00 00 00 fa 44 81 
10 3b 4c 00 00 80 00 00 00 00 00 00 00 fa 44 81 
10 3b d8 00 00 80 00 00 00 00 00 00 00 fa 44 81 
10 3a f1 00 00 80 00 00 00 00 00 00 00 fa 44 81 
10 3b 3d 00 00 80 00 00 00 00 00 00 00 fa 44 81 
10 3b 54 00 00 80 00 00 00 00 00 00 00 fa 44 81 
10 3b 2c 00 00 80 00 00 00 00 00 00 00 fa 44 81 
10 3b 29 00 00 80 00 00 00 00 00 00 00 fa 44 81 
10 3b 38 00 00 80 00 00 00 00 00 00 00 fa 44 81 
10 3b ec 00 00 80 00 00 00 00 00 00 00 fa 44 81 
10 3b 3a 00 00 80 00 00 00 00 00 00 00 fa 44 81 
10 3b d7 00 00 80 00 00 00 00 00 00 00 fa 44 81 
10 3b 57 00 00 80 00 00 00 00 00 00 00 fa 44 81 
10 3b 0b 00 00 80 00 00 00 00 00 00 00 fa 44 81 
10 3b 23 00 00 80 00 00 00 00 00 00 00 fa 44 81 
10 3b 2a 00 00 80 00 00 00 00 00 00 00 fa 44 81 
10 3a de 00 00 80 00 00 00 00 00 00 00 fa 44 81 
10 3b 5d 00 00 80 00 00 00 00 00 00 00 fa 44 81 
10 3b 4f 00 00 80 00 00 00 00 00 00 00 fa 44 81 
10 3c 3b 00 00 80 00 00 00 00 00 00 00 fa 44 81 
10 3b d7 00 00 80 00 00 00 00 00 00 00 fa 44 81 
10 3b ae 00 00 80 00 00 00 00 00 00 00 fa 44 81 
10 3b c4 00 00 80 00 00 00 00 00 00 00 fa 44 81 
10 3c 22 00 00 80 00 00 00 00 00 00 00 fa 44 81 
10 3c 46 00 00 80 00 00 00 00 00 00 00 fa 44 81 
10 3c 15 00 00 80 00 00 00 00 00 00 00 fa 44 81 
10 3c 4d 00 00 80 00 00 00 00 00 00 00 fa 44 81 
10 3c 23 00 00 80 00 00 00 00 00 00 00 fa 44 81 
10 3c 06 00 00 80 00 00 00 00 00 00 00 fa 44 81 
10 3c 2f 00 00 80 00 00 00 00 00 00 00 fa 44 81 
10 3c 1a 00 00 80 00 00 00 00 00 00 00 fa 44 81 
10 3c 62 00 00 80 00 00 00 00 00 00 00 fa 44 81 
10 3b e3 00 00 80 00 00 00 00 00 00 00 fa 44 81 
10 3b e8 00 00 80 00 00 00 00 00 00 00 fa 44 81 
10 3c 08 00 00 80 00 00 00 00 00 00 00 fa 44 81 
10 3b b7 00 00 80 00 00 00 00 00 00 00 fa 44 81 
10 3c 40 00 00 80 00 00 00 00 00 00 00 fa 44 81 
10 3b a9 00 00 80 00 00 00 00 00 00 00 fa 44 81 
10 3b 6a 00 00 80 00 00 00 00 00 00 00 fa 44 81 
10 3b c3 00 00 80 00 00 00 00 00 00 00 fa 44 81 
10 3b b7 00 00 80 00 00 00 00 00 00 00 fa 44 81 
10 3b ff 00 00 80 00 00 00 00 00 00 00 fa 44 81 
10 3c 1c 00 00 80 00 00 00 00 00 00 00 fa 44 81 
10 3c b1 00 00 80 00 00 00 00 00 00 00 fa 44 81 
10 3c d4 00 00 80 00 00 00 00 00 00 00 fa 44 81 
10 3b df 00 00 80 00 00 00 00 00 00 00 fa 44 81 
10 3c 65 00 00 80 00 00 00 00 00 00 00 fa 44 81 
10 3c 92 00 00 80 00 00 00 00 00 00 00 fa 44 81 
10 3c a3 00 00 80 00 00 00 00 00 00 00 fa 44 81 
10 3c c5 00 00 80 00 00 00 00 00 00 00 fa 44 81 
10 3d af 00 00 80 00 00 00 00 00 00 00 fa 44 81 
10 3d 03 00 00 80 00 00 00 00 00 00 00 fa 44 81 
10 3d 09 00 00 80 00 00 00 00 00 00 00 fa 44 81 
10 3c ed 00 00 80 00 00 00 00 00 00 00 fa 44 81 
10 3d 01 00 00 80 00 00 00 00 00 00 00 fa 44 81 
10 3c 15 00 00 80 00 00 00 00 00 00 00 fa 44 81 
10 3d 39 00 00 80 00 00 00 00 00 00 00 fa 44 81 
10 3c 54 00 00 80 00 00 00 00 00 00 00 fa 44 81 
10 3c 64 00 00 80 00 00 00 00 00 00 00 fa 44 81 
10 3b 9d 00 00 80 00 00 00 00 00 00 00 fa 44 81 
10 3b 5f 00 00 80 00 00 00 00 00 00 00 fa 44 81 
10 3b 1f 00 00 80 00 00 00 00 00 00 00 fa 44 81 
10 3a c0 00 00 80 00 00 00 00 00 00 00 fa 44 81 
10 3a 66 00 00 80 00 00 00 00 00 00 00 fa 44 81 
10 3a c9 00 00 80 00 00 00 00 00 00 00 fa 44 81 
10 3a 44 00 00 80 00 00 00 00 00 00 00 fa 44 81 
10 3a 46 00 00 80 00 00 00 00 00 00 00 fa 44 81 
10 3a 3e 00 00 80 00 00 00 00 00 00 00 fa 44 81 
10 3a 25 00 00 80 00 00 00 00 00 00 00 fa 44 81 
10 3a 1e 00 00 80 00 00 00 00 00 00 00 fa 44 81 
10 3a 54 00 00 80 00 00 00 00 00 00 00 fa 44 81 
10 3a 88 00 00 80 00 00 00 00 00 00 00 fa 44 81 
10 3a d7 00 00 80 00 00 00 00 00 00 00 fa 44 81 
10 3a e2 00 00 80 00 00 00 00 00 00 00 fa 44 81 
10 3a f1 00 00 80 00 00 00 00 00 00 00 fa 44 81 
10 3b 03 00 00 80 00 00 00 00 00 00 00 fa 44 81 
10 3a fe 00 00 80 00 00 00 00 00 00 00 fa 44 81 
10 3b 0e 00 00 80 00 00 00 00 00 00 00 fa 44 81 
10 3a f8 00 00 80 00 00 00 00 00 00 00 fa 44 81 
10 3b 48 00 00 80 00 00 00 00 00 00 00 fa 44 81 
10 3b 40 00 00 80 00 00 00 00 00 00 00 fa 44 81 
10 3b a1 00 00 80 00 00 00 00 00 00 00 fa 44 81 
10 3c 4e 00 00 80 00 00 00 00 00 00 00 fa 44 81 
10 3b d5 00 00 80 00 00 00 00 00 00 00 fa 44 81 
10 3c 78 00 00 80 00 00 00 00 00 00 00 fa 44 81 
10 3c 7c 00 00 80 00 00 00 00 00 00 00 fa 44 81 
10 3c 69 00 00 80 00 00 00 00 00 00 00 fa 44 81 
10 3c 48 00 00 80 00 00 00 00 00 00 00 fa 44 81 
10 3d 14 00 00 80 00 00 00 00 00 00 00 fa 44 81 
10 3b e2 00 00 80 00 00 00 00 00 00 00 fa 44 81 
10 3c 19 00 00 80 00 00 00 00 00 00 00 fa 44 81 
10 3c 78 00 00 80 00 00 00 00 00 00 00 fa 44 81 
10 3c 16 00 00 80 00 00 00 00 00 00 00 fa 44 81 
10 3d 48 00 00 80 00 00 00 00 00 00 00 fa 44 81 
10 3d 1b 00 00 80 00 00 00 00 00 00 00 fa 44 81 
10 3d 0a 00 00 80 00 00 00 00 00 00 00 fa 44 81 
10 3d 6f 00 00 80 00 00 00 00 00 00 00 fa 44 81 
10 3d 99 00 00 80 00 00 00 00 00 00 00 fa 44 81 
10 3d c5 00 00 80 00 00 00 00 00 00 00 fa 44 81 
10 3d 66 00 00 80 00 00 00 00 00 00 00 fa 44 81 
10 3e 44 00 00 80 00 00 00 00 00 00 00 fa 44 81 
10 3d 7b 00 00 80 00 00 00 00 00 00 00 fa 44 81 
10 3e 4f 00 00 80 00 00 00 00 00 00 00 fa 44 81 
10 3d 8b 00 00 80 00 00 00 00 00 00 00 fa 44 81 
10 3d d2 00 00 80 00 00 00 00 00 00 00 fa 44 81 
10 3d d5 00 00 80 00 00 00 00 00 00 00 fa 44 81 
10 3d 84 00 00 80 00 00 00 00 00 00 00 fa 44 81 
10 3d b1 00 00 80 00 00 00 00 00 00 00 fa 44 81 
10 3e 32 00 00 80 00 00 00 00 00 00 00 fa 44 81 
10 3d 9d 00 00 80 00 00 00 00 00 00 00 fa 44 81 
10 3d 9a 00 00 80 00 00 00 00 00 00 00 fa 44 81 
10 3d ab 00 00 80 00 00 00 00 00 00 00 fa 44 81 
10 3d f1 00 00 80 00 00 00 00 00 00 00 fa 44 81 
10 3d 6c 00 00 80 00 00 00 00 00 00 00 fa 44 81 
10 3d c0 00 00 80 00 00 00 00 00 00 00 fa 44 81 
10 3d e1 00 00 80 00 00 00 00 00 00 00 fa 44 81 
10 3e 5f 00 00 80 00 00 00 00 00 00 00 fa 44 81 
10 3e 87 00 00 80 00 00 00 00 00 00 00 fa 44 81 
10 3e c0 00 00 80 00 00 00 00 00 00 00 fa 44 81 
10 3e dc 00 00 80 00 00 00 00 00 00 00 fa 44 81 
10 3e 7c 00 00 80 00 00 00 00 00 00 00 fa 44 81 
10 3f 11 00 00 80 00 00 00 00 00 00 00 fa 44 81 
10 3f 07 00 00 80 00 00 00 00 00 00 00 fa 44 81 
10 3f 27 00 00 80 00 00 00 00 00 00 00 fa 44 81 
10 40 38 00 00 80 00 00 00 00 00 00 00 fa 44 81 
10 3f 4a 00 00 80 00 00 00 00 00 00 00 fa 44 81 
10 3f f8 00 00 80 00 00 00 00 00 00 00 fa 44 81 
10 40 23 00 00 80 00 00 00 00 00 00 00 fa 44 81 
10 40 2d 00 00 80 00 00 00 00 00 00 00 fa 44 81 
10 41 3e 00 00 80 00 00 00 00 00 00 00 fa 44 81 
10 40 c8 00 00 80 00 00 00 00 00 00 00 fa 44 81 
10 40 ae 00 00 80 00 00 00 00 00 00 00 fa 44 81 
10 40 cd 00 00 80 00 00 00 00 00 00 00 fa 44 81 
10 41 40 00 00 80 00 00 00 00 00 00 00 fa 44 81 
10 41 57 00 00 80 00 00 00 00 00 00 00 fa 44 81 
10 41 af 00 00 80 00 00 00 00 00 00 00 fa 44 81 
10 41 54 00 00 80 00 00 00 00 00 00 00 fa 44 81 
10 41 f9 00 00 80 00 00 00 00 00 00 00 fa 44 81 
10 41 e1 00 00 80 00 00 00 00 00 00 00 fa 44 81 
10 42 17 00 00 80 00 00 00 00 00 00 00 fa 44 81 
10 42 82 00 00 80 00 00 00 00 00 00 00 fa 44 81 
10 42 6c 00 00 80 00 00 00 00 00 00 00 fa 44 81 
10 42 6e 00 00 80 00 00 00 00 00 00 00 fa 44 81 
10 43 11 00 00 80 00 00 00 00 00 00 00 fa 44 81 
10 42 75 00 00 80 00 00 00 00 00 00 00 fa 44 81 
10 42 2f 00 00 80 00 00 00 00 00 00 00 fa 44 81 
10 42 49 00 00 80 00 00 00 00 00 00 00 fa 44 81 
10 42 55 00 00 80 00 00 00 00 00 00 00 fa 44 81 
10 43 84 00 00 80 00 00 00 00 00 00 00 fa 44 81 
10 42 43 00 00 80 00 00 00 00 00 00 00 fa 44 81 
10 42 73 00 00 80 00 00 00 00 00 00 00 fa 44 81 
10 42 65 00 00 80 00 00 00 00 00 00 00 fa 44 81 
10 42 1f 00 00 80 00 00 00 00 00 00 00 fa 44 81 
10 42 0a 00 00 80 00 00 00 00 00 00 00 fa 44 81 
10 42 63 00 00 80 00 00 00 00 00 00 00 fa 44 81 
10 41 66 00 00 80 00 00 00 00 00 00 00 fa 44 81 
10 41 af 00 00 80 00 00 00 00 00 00 00 fa 44 81 
10 40 e0 00 00 80 00 00 00 00 00 00 00 fa 44 81 
10 40 b3 00 00 80 00 00 00 00 00 00 00 fa 44 81 
10 40 f9 00 00 80 00 00 00 00 00 00 00 fa 44 81 
10 40 a1 00 00 80 00 00 00 00 00 00 00 fa 44 81 
10 40 cb 00 00 80 00 00 00 00 00 00 00 fa 44 81 
10 40 a7 00 00 80 00 00 00 00 00 00 00 fa 44 81 
10 40 6a 00 00 80 00 00 00 00 00 00 00 fa 44 81 
10 40 a9 00 00 80 00 00 00 00 00 00 00 fa 44 81 
10 40 85 00 00 80 00 00 00 00 00 00 00 fa 44 81 
10 40 00 00 00 80 00 00 00 00 00 00 00 fa 44 81 
10 40 3a 00 00 80 00 00 00 00 00 00 00 fa 44 81 
10 40 a9 00 00 80 00 00 00 00 00 00 00 fa 44 81 
10 40 00 00 00 80 00 00 00 00 00 00 00 fa 44 81 
10 3f 9b 00 00 80 00 00 00 00 00 00 00 fa 44 81 
10 40 64 00 00 80 00 00 00 00 00 00 00 fa 44 81 
10 3f 43 00 00 80 00 00 00 00 00 00 00 fa 44 81 
10 3f 6c 00 00 80 00 00 00 00 00 00 00 fa 44 81 
10 3f 5f 00 00 80 00 00 00 00 00 00 00 fa 44 81 
10 3f 78 00 00 80 00 00 00 00 00 00 00 fa 44 81 
10 3f 43 00 00 80 00 00 00 00 00 00 00 fa 44 81 
10 3f 49 00 00 80 00 00 00 00 00 00 00 fa 44 81 
10 3f 9c 00 00 80 00 00 00 00 00 00 00 fa 44 81 
10 3f ac 00 00 80 00 00 00 00 00 00 00 fa 44 81 
10 3f c3 00 00 80 00 00 00 00 00 00 00 fa 44 81 
10 40 2a 00 00 80 00 00 00 00 00 00 00 fa 44 81 
10 40 09 00 00 80 00 00 00 00 00 00 00 fa 44 81 
10 40 23 00 00 80 00 00 00 00 00 00 00 fa 44 81 
10 3f fd 00 00 80 00 00 00 00 00 00 00 fa 44 81 
10 40 57 00 00 80 00 00 00 00 00 00 00 fa 44 81 
10 3f af 00 00 80 00 00 00 00 00 00 00 fa 44 81 
10 3f d2 00 00 80 00 00 00 00 00 00 00 fa 44 81 
10 40 39 00 00 80 00 00 00 00 00 00 00 fa 44 81 
10 40 04 00 00 80 00 00 00 00 00 00 00 fa 44 81 
10 3f 39 00 00 80 00 00 00 00 00 00 00 fa 44 81 
10 3f 46 00 00 80 00 00 00 00 00 00 00 fa 44 81 
10 3e ee 00 00 80 00 00 00 00 00 00 00 fa 44 81 
10 3e e8 00 00 80 00 00 00 00 00 00 00 fa 44 81 
10 3f 0f 00 00 80 00 00 00 00 00 00 00 fa 44 81 
10 3f 8e 00 00 80 00 00 00 00 00 00 00 fa 44 81 
10 3f 02 00 00 80 00 00 00 00 00 00 00 fa 44 81 
10 3e 88 00 00 80 00 00 00 00 00 00 00 fa 44 81 
10 3e c3 00 00 80 00 00 00 00 00 00 00 fa 44 81 
10 3f 4f 00 00 80 00 00 00 00 00 00 00 fa 44 81 
10 3e b2 00 00 80 00 00 00 00 00 00 00 fa 44 81 
10 3e cc 00 00 80 00 00 00 00 00 00 00 fa 44 81 
10 3e fe 00 00 80 00 00 00 00 00 00 00 fa 44 81 
10 3f 91 00 00 80 00 00 00 00 00 00 00 fa 44 81 
10 3e 49 00 00 80 00 00 00 00 00 00 00 fa 44 81 
10 3e b0 00 00 80 00 00 00 00 00 00 00 fa 44 81 
10 3e 2d 00 00 80 00 00 00 00 00 00 00 fa 44 81 
10 3e a9 00 00 80 00 00 00 00 00 00 00 fa 44 81 
10 3e 62 00 00 80 00 00 00 00 00 00 00 fa 44 81 
10 3d cf 00 00 80 00 00 00 00 00 00 00 fa 44 81 
10 3e 46 00 00 80 00 00 00 00 00 00 00 fa 44 81 
10 3d df 00 00 80 00 00 00 00 00 00 00 fa 44 81 
10 3d 89 00 00 80 00 00 00 00 00 00 00 fa 44 81 
10 3e 63 00 00 80 00 00 00 00 00 00 00 fa 44 81 
10 3e 56 00 00 80 00 00 00 00 00 00 00 fa 44 81 
10 3e 39 00 00 80 00 00 00 00 00 00 00 fa 44 81 
10 3d fa 00 00 80 00 00 00 00 00 00 00 fa 44 81 
10 3e 42 00 00 80 00 00 00 00 00 00 00 fa 44 81 
10 3e 41 00 00 80 00 00 00 00 00 00 00 fa 44 81 
10 3e 09 00 00 80 00 00 00 00 00 00 00 fa 44 81 
10 3e ae 00 00 80 00 00 00 00 00 00 00 fa 44 81 
10 3e e6 00 00 80 00 00 00 00 00 00 00 fa 44 81 
10 3e 92 00 00 80 00 00 00 00 00 00 00 fa 44 81 
10 3e d2 00 00 80 00 00 00 00 00 00 00 fa 44 81 
10 3f 2d 00 00 80 00 00 00 00 00 00 00 fa 44 81 
10 3f 29 00 00 80 00 00 00 00 00 00 00 fa 44 81 
10 3f 30 00 00 80 00 00 00 00 00 00 00 fa 44 81 
10 3f 18 00 00 80 00 00 00 00 00 00 00 fa 44 81 
10 3f 66 00 00 80 00 00 00 00 00 00 00 fa 44 81 
10 3f ba 00 00 80 00 00 00 00 00 00 00 fa 44 81 
10 3f d0 00 00 80 00 00 00 00 00 00 00 fa 44 81 
10 40 24 00 00 80 00 00 00 00 00 00 00 fa 44 81 
10 3f ce 00 00 80 00 00 00 00 00 00 00 fa 44 81 
10 3f ba 00 00 80 00 00 00 00 00 00 00 fa 44 81 
10 3f c8 00 00 80 00 00 00 00 00 00 00 fa 44 81 
10 3f f1 00 00 80 00 00 00 00 00 00 00 fa 44 81 
10 40 42 00 00 80 00 00 00 00 00 00 00 fa 44 81 
10 40 84 00 00 80 00 00 00 00 00 00 00 fa 44 81 
10 41 a9 00 00 80 00 00 00 00 00 00 00 fa 44 81 
10 41 2b 00 00 80 00 00 00 00 00 00 00 fa 44 81 
10 40 d6 00 00 80 00 00 00 00 00 00 00 fa 44 81 
10 40 98 00 00 80 00 00 00 00 00 00 00 fa 44 81 
10 40 be 00 00 80 00 00 00 00 00 00 00 fa 44 81 
10 40 b5 00 00 80 00 00 00 00 00 00 00 fa 44 81 
10 40 ec 00 00 80 00 00 00 00 00 00 00 fa 44 81 
10 40 c3 00 00 80 00 00 00 00 00 00 00 fa 44 81 
10 40 64 00 00 80 00 00 00 00 00 00 00 fa 44 81 
10 40 39 00 00 80 00 00 00 00 00 00 00 fa 44 81 
10 40 98 00 00 80 00 00 00 00 00 00 00 fa 44 81 
10 40 f4 00 00 80 00 00 00 00 00 00 00 fa 44 81 
10 40 62 00 00 80 00 00 00 00 00 00 00 fa 44 81 
10 40 6e 00 00 80 00 00 00 00 00 00 00 fa 44 81 
10 40 02 00 00 80 00 00 00 00 00 00 00 fa 44 81 
10 40 91 00 00 80 00 00 00 00 00 00 00 fa 44 81 
10 40 73 00 00 80 00 00 00 00 00 00 00 fa 44 81 
10 40 52 00 00 80 00 00 00 00 00 00 00 fa 44 81 
10 40 d1 00 00 80 00 00 00 00 00 00 00 fa 44 81 
10 40 cc 00 00 80 00 00 00 00 00 00 00 fa 44 81 
10 40 fc 00 00 80 00 00 00 00 00 00 00 fa 44 81 
10 40 bf 00 00 80 00 00 00 00 00 00 00 fa 44 81 
10 41 06 00 00 80 00 00 00 00 00 00 00 fa 44 81 
10 40 fd 00 00 80 00 00 00 00 00 00 00 fa 44 81 
10 40 bf 00 00 80 00 00 00 00 00 00 00 fa 44 81 
10 41 22 00 00 80 00 00 00 00 00 00 00 fa 44 81 
10 40 d0 00 00 80 00 00 00 00 00 00 00 fa 44 81 
10 40 b7 00 00 80 00 00 00 00 00 00 00 fa 44 81 
10 41 00 00 00 80 00 00 00 00 00 00 00 fa 44 81 
10 40 d0 00 00 80 00 00 00 00 00 00 00 fa 44 81 
10 41 0e 00 00 80 00 00 00 00 00 00 00 fa 44 81 
10 41 1f 00 00 80 00 00 00 00 00 00 00 fa 44 81 
10 41 10 00 00 80 00 00 00 00 00 00 00 fa 44 81 
10 41 2a 00 00 80 00 00 00 00 00 00 00 fa 44 81 
10 42 32 00 00 80 00 00 00 00 00 00 00 fa 44 81 
10 41 51 00 00 80 00 00 00 00 00 00 00 fa 44 81 
10 42 55 00 00 80 00 00 00 00 00 00 00 fa 44 81 
10 41 c3 00 00 80 00 00 00 00 00 00 00 fa 44 81 
10 41 85 00 00 80 00 00 00 00 00 00 00 fa 44 81 
10 41 9c 00 00 80 00 00 00 00 00 00 00 fa 44 81 
10 42 82 00 00 80 00 00 00 00 00 00 00 fa 44 81 
10 42 e8 00 00 80 00 00 00 00 00 00 00 fa 44 81 
10 41 a9 00 00 80 00 00 00 00 00 00 00 fa 44 81 
10 41 35 00 00 80 00 00 00 00 00 00 00 fa 44 81 
10 41 a8 00 00 80 00 00 00 00 00 00 00 fa 44 81 
10 41 a2 00 00 80 00 00 00 00 00 00 00 fa 44 81 
10 41 9d 00 00 80 00 00 00 00 00 00 00 fa 44 81 
10 41 85 00 00 80 00 00 00 00 00 00 00 fa 44 81 
10 41 e3 00 00 80 00 00 00 00 00 00 00 fa 44 81 
10 41 93 00 00 80 00 00 00 00 00 00 00 fa 44 81 
10 41 a7 00 00 80 00 00 00 00 00 00 00 fa 44 81 
10 42 00 00 00 80 00 00 00 00 00 00 00 fa 44 81 
10 42 10 00 00 80 00 00 00 00 00 00 00 fa 44 81 
10 41 f8 00 00 80 00 00 00 00 00 00 00 fa 44 81 
10 42 db 00 00 80 00 00 00 00 00 00 00 fa 44 81 
10 42 24 00 00 80 00 00 00 00 00 00 00 fa 44 81 
10 42 48 00 00 80 00 00 00 00 00 00 00 fa 44 81 
10 42 3a 00 00 80 00 00 00 00 00 00 00 fa 44 81 
10 42 7c 00 00 80 00 00 00 00 00 00 00 fa 44 81 
10 42 db 00 00 80 00 00 00 00 00 00 00 fa 44 81 
10 42 a6 00 00 80 00 00 00 00 00 00 00 fa 44 81 
10 42 e2 00 00 80 00 00 00 00 00 00 00 fa 44 81 
10 43 1d 00 00 80 00 00 00 00 00 00 00 fa 44 81 
10 43 79 00 00 80 00 00 00 00 00 00 00 fa 44 81 
10 43 6f 00 00 80 00 00 00 00 00 00 00 fa 44 81 
10 43 5a 00 00 80 00 00 00 00 00 00 00 fa 44 81 
10 43 4b 00 00 80 00 00 00 00 00 00 00 fa 44 81 
10 43 69 00 00 80 00 00 00 00 00 00 00 fa 44 81 
10 43 43 00 00 80 00 00 00 00 00 00 00 fa 44 81 
10 43 a0 00 00 80 00 00 00 00 00 00 00 fa 44 81 
10 43 85 00 00 80 00 00 00 00 00 00 00 fa 44 81 
10 43 92 00 00 80 00 00 00 00 00 00 00 fa 44 81 
10 43 af 00 00 80 00 00 00 00 00 00 00 fa 44 81 
10 43 af 00 00 80 00 00 00 00 00 00 00 fa 44 81 
10 43 ab 00 00 80 00 00 00 00 00 00 00 fa 44 81 
10 43 e2 00 00 80 00 00 00 00 00 00 00 fa 44 81 
10 44 ac 00 00 80 00 00 00 00 00 00 00 fa 44 81 
10 44 b8 00 00 80 00 00 00 00 00 00 00 fa 44 81 
10 44 68 00 00 80 00 00 00 00 00 00 00 fa 44 81 
10 44 55 00 00 80 00 00 00 00 00 00 00 fa 44 81 
10 44 24 00 00 80 00 00 00 00 00 00 00 fa 44 81 
10 44 68 00 00 80 00 00 00 00 00 00 00 fa 44 81 
10 44 70 00 00 80 00 00 00 00 00 00 00 fa 44 81 
10 44 ba 00 00 80 00 00 00 00 00 00 00 fa 44 81 
10 44 eb 00 00 80 00 00 00 00 00 00 00 fa 44 81 
10 45 00 00 00 80 00 00 00 00 00 00 00 fa 44 81 
10 45 74 00 00 80 00 00 00 00 00 00 00 fa 44 81 
10 45 20 00 00 80 00 00 00 00 00 00 00 fa 44 81 
10 45 71 00 00 80 00 00 00 00 00 00 00 fa 44 81 
10 44 bb 00 00 80 00 00 00 00 00 00 00 fa 44 81 
10 45 08 00 00 80 00 00 00 00 00 00 00 fa 44 81 
10 44 d6 00 00 80 00 00 00 00 00 00 00 fa 44 81 
10 45 82 00 00 80 00 00 00 00 00 00 00 fa 44 81 
10 45 c9 00 00 80 00 00 00 00 00 00 00 fa 44 81 
10 45 9d 00 00 80 00 00 00 00 00 00 00 fa 44 81 
10 45 47 00 00 80 00 00 00 00 00 00 00 fa 44 81 
10 45 51 00 00 80 00 00 00 00 00 00 00 fa 44 81 
10 45 3b 00 00 80 00 00 00 00 00 00 00 fa 44 81 
10 44 d7 00 00 80 00 00 00 00 00 00 00 fa 44 81 
10 45 49 00 00 80 00 00 00 00 00 00 00 fa 44 81 
10 45 6f 00 00 80 00 00 00 00 00 00 00 fa 44 81 
10 45 b2 00 00 80 00 00 00 00 00 00 00 fa 44 81 
10 46 6a 00 00 80 00 00 00 00 00 00 00 fa 44 81 
10 45 ea 00 00 80 00 00 00 00 00 00 00 fa 44 81 
10 46 26 00 00 80 00 00 00 00 00 00 00 fa 44 81 
10 45 eb 00 00 80 00 00 00 00 00 00 00 fa 44 81 
10 46 0a 00 00 80 00 00 00 00 00 00 00 fa 44 81 
10 46 1e 00 00 80 00 00 00 00 00 00 00 fa 44 81 
10 46 2e 00 00 80 00 00 00 00 00 00 00 fa 44 81 
10 46 17 00 00 80 00 00 00 00 00 00 00 fa 44 81 
10 46 46 00 00 80 00 00 00 00 00 00 00 fa 44 81 
10 46 65 00 00 80 00 00 00 00 00 00 00 fa 44 81 
10 45 b8 00 00 80 00 00 00 00 00 00 00 fa 44 81 
10 45 95 00 00 80 00 00 00 00 00 00 00 fa 44 81 
10 46 5c 00 00 80 00 00 00 00 00 00 00 fa 44 81 
10 45 d3 00 00 80 00 00 00 00 00 00 00 fa 44 81 
10 46 18 00 00 80 00 00 00 00 00 00 00 fa 44 81 
10 46 5d 00 00 80 00 00 00 00 00 00 00 fa 44 81 
10 46 4d 00 00 80 00 00 00 00 00 00 00 fa 44 81 
10 46 37 00 00 80 00 00 00 00 00 00 00 fa 44 81 
10 46 40 00 00 80 00 00 00 00 00 00 00 fa 44 81 
10 46 75 00 00 80 00 00 00 00 00 00 00 fa 44 81 
10 46 cc 00 00 80 00 00 00 00 00 00 00 fa 44 81 
10 46 d4 00 00 80 00 00 00 00 00 00 00 fa 44 81 
10 46 68 00 00 80 00 00 00 00 00 00 00 fa 44 81 
10 46 4b 00 00 80 00 00 00 00 00 00 00 fa 44 81 
10 46 7c 00 00 80 00 00 00 00 00 00 00 fa 44 81 
10 46 56 00 00 80 00 00 00 00 00 00 00 fa 44 81 
10 46 97 00 00 80 00 00 00 00 00 00 00 fa 44 81 
10 46 ea 00 00 80 00 00 00 00 00 00 00 fa 44 81 
10 47 47 00 00 80 00 00 00 00 00 00 00 fa 44 81 
10 47 5e 00 00 80 00 00 00 00 00 00 00 fa 44 81 
10 48 10 00 00 80 00 00 00 00 00 00 00 fa 44 81 
10 47 45 00 00 80 00 00 00 00 00 00 00 fa 44 81 
10 47 df 00 00 80 00 00 00 00 00 00 00 fa 44 81 
10 47 3b 00 00 80 00 00 00 00 00 00 00 fa 44 81 
10 48 07 00 00 80 00 00 00 00 00 00 00 fa 44 81 
10 47 ce 00 00 80 00 00 00 00 00 00 00 fa 44 81 
10 47 0a 00 00 80 00 00 00 00 00 00 00 fa 44 81 
10 47 32 00 00 80 00 00 00 00 00 00 00 fa 44 81 
10 47 78 00 00 80 00 00 00 00 00 00 00 fa 44 81 
10 47 6d 00 00 80 00 00 00 00 00 00 00 fa 44 81 
10 47 a2 00 00 80 00 00 00 00 00 00 00 fa 44 81 
10 47 7f 00 00 80 00 00 00 00 00 00 00 fa 44 81 
10 47 87 00 00 80 00 00 00 00 00 00 00 fa 44 81 
10 47 44 00 00 80 00 00 00 00 00 00 00 fa 44 81 
10 47 ca 00 00 80 00 00 00 00 00 00 00 fa 44 81 
10 47 95 00 00 80 00 00 00 00 00 00 00 fa 44 81 
10 47 f1 00 00 80 00 00 00 00 00 00 00 fa 44 81 
10 47 e2 00 00 80 00 00 00 00 00 00 00 fa 44 81 
10 48 83 00 00 80 00 00 00 00 00 00 00 fa 44 81 
10 47 95 00 00 80 00 00 00 00 00 00 00 fa 44 81 
10 47 b4 00 00 80 00 00 00 00 00 00 00 fa 44 81 
10 48 9e 00 00 80 00 00 00 00 00 00 00 fa 44 81 
10 48 56 00 00 80 00 00 00 00 00 00 00 fa 44 81 
10 48 e5 00 00 80 00 00 00 00 00 00 00 fa 44 81 
10 48 e1 00 00 80 00 00 00 00 00 00 00 fa 44 81 
10 49 86 00 00 80 00 00 00 00 00 00 00 fa 44 81 
10 49 52 00 00 80 00 00 00 00 00 00 00 fa 44 81 
10 49 46 00 00 80 00 00 00 00 00 00 00 fa 44 81 
10 49 16 00 00 80 00 00 00 00 00 00 00 fa 44 81 
10 4a 30 00 00 80 00 00 00 00 00 00 00 fa 44 81 
10 4a 22 00 00 80 00 00 00 00 00 00 00 fa 44 81 
10 49 b4 00 00 80 00 00 00 00 00 00 00 fa 44 81 
10 49 8e 00 00 80 00 00 00 00 00 00 00 fa 44 81 
10 4a 50 00 00 80 00 00 00 00 00 00 00 fa 44 81 
10 49 5f 00 00 80 00 00 00 00 00 00 00 fa 44 81 
10 49 90 00 00 80 00 00 00 00 00 00 00 fa 44 81 
10 4a 16 71 25 00 00 7a 66 8e 70 00 00 10 00 81 
10 49 ba 00 00 05 00 00 00 0a 85 00 00 fa 44 81 
10 49 f0 00 00 05 00 00 00 0a 85 00 00 fa 44 81 
10 49 d3 00 00 05 00 00 00 0a 85 00 00 fa 44 81 
10 49 bc 00 00 05 00 00 00 0a 85 00 00 fa 44 81 
10 4a 33 00 00 05 00 00 00 0a 85 00 00 fa 44 81 
10 49 e6 00 00 05 00 00 00 0a 85 00 00 fa 44 81 
10 49 c4 00 00 05 00 00 00 0a 85 00 00 fa 44 81 
10 4a 03 00 00 05 00 00 00 0a 85 00 00 fa 44 81 
10 4a e2 00 00 05 00 00 00 0a 85 00 00 fa 44 81 
10 4a 3d 00 00 05 00 00 00 0a 85 00 00 fa 44 81 
10 4a 20 00 00 05 00 00 00 0a 85 00 00 fa 44 81 
10 4a 1f 00 00 05 00 00 00 0a 85 00 00 fa 44 81 
10 4a 4b 00 00 05 00 00 00 0a 85 00 00 fa 44 81 
10 4a 85 00 00 05 00 00 00 0a 85 00 00 fa 44 81 
10 4a 95 00 00 05 00 00 00 0a 85 00 00 fa 44 81 
10 4a 8b 00 00 05 00 00 00 0a 85 00 00 fa 44 81 
10 4a d6 00 00 05 00 00 00 0a 85 00 00 fa 44 81 
10 4b 5a 00 00 05 00 00 00 0a 85 00 00 fa 44 81 
10 4a a9 00 00 05 00 00 00 0a 85 00 00 fa 44 81 
10 4a bf 00 00 05 00 00 00 0a 85 00 00 fa 44 81 
10 4a 70 00 00 05 00 00 00 0a 85 00 00 fa 44 81 
10 4a 89 00 00 05 00 00 00 0a 85 00 00 fa 44 81 
10 4b 20 00 00 05 00 00 00 0a 85 00 00 fa 44 81 
10 4a e6 00 00 05 00 00 00 0a 85 00 00 fa 44 81 
10 4b 56 00 00 05 00 00 00 0a 85 00 00 fa 44 81 
10 4b 50 00 00 05 00 00 00 0a 85 00 00 fa 44 81 
10 4b e7 00 00 05 00 00 00 0a 85 00 00 fa 44 81 
10 4b 76 00 00 05 00 00 00 0a 85 00 00 fa 44 81 
10 4b 73 00 00 05 00 00 00 0a 85 00 00 fa 44 81 
10 4b c0 00 00 05 00 00 00 0a 85 00 00 fa 44 81 
10 4c 07 00 00 05 00 00 00 0a 85 00 00 fa 44 81 
10 4c 50 00 00 05 00 00 00 0a 85 00 00 fa 44 81 
10 4c 50 00 00 05 00 00 00 0a 85 00 00 fa 44 81 
10 4c 31 00 00 05 00 00 00 0a 85 00 00 fa 44 81 
10 4c 28 00 00 05 00 00 00 0a 85 00 00 fa 44 81 
10 4c 47 00 00 05 00 00 00 0a 85 00 00 fa 44 81 
10 4c 69 00 00 05 00 00 00 0a 85 00 00 fa 44 81 
10 4c 81 00 00 05 00 00 00 0a 85 00 00 fa 44 81 
10 4c 56 00 00 05 00 00 00 0a 85 00 00 fa 44 81 
10 4b fe 00 00 05 00 00 00 0a 85 00 00 fa 44 81 
10 4c 04 00 00 05 00 00 00 0a 85 00 00 fa 44 81 
10 4c 07 00 00 05 00 00 00 0a 85 00 00 fa 44 81 
10 4c b0 00 00 05 00 00 00 0a 85 00 00 fa 44 81 
10 4c 07 00 00 05 00 00 00 0a 85 00 00 fa 44 81 
10 4c 1b 00 00 05 00 00 00 0a 85 00 00 fa 44 81 
10 4b aa 00 00 05 00 00 00 0a 85 00 00 fa 44 81 
10 4b e4 00 00 05 00 00 00 0a 85 00 00 fa 44 81 
10 4b f6 00 00 05 00 00 00 0a 85 00 00 fa 44 81 
10 4b a0 00 00 05 00 00 00 0a 85 00 00 fa 44 81 
10 4b d2 00 00 05 00 00 00 0a 85 00 00 fa 44 81 
10 4b ae 00 00 05 00 00 00 0a 85 00 00 fa 44 81 
10 4b c8 00 00 05 00 00 00 0a 85 00 00 fa 44 81 
10 4c 08 00 00 05 00 00 00 0a 85 00 00 fa 44 81 
10 4c 02 00 00 05 00 00 00 0a 85 00 00 fa 44 81 
10 4c 06 00 00 05 00 00 00 0a 85 00 00 fa 44 81 
10 4b b4 00 00 05 00 00 00 0a 85 00 00 fa 44 81 
10 4c 19 00 00 05 00 00 00 0a 85 00 00 fa 44 81 
10 4c 90 00 00 05 00 00 00 0a 85 00 00 fa 44 81 
10 4d 21 00 00 05 00 00 00 0a 85 00 00 fa 44 81 
10 4d d5 00 00 05 00 00 00 0a 85 00 00 fa 44 81 
10 4d 2f 00 00 05 00 00 00 0a 85 00 00 fa 44 81 
10 4d 5c 00 00 05 00 00 00 0a 85 00 00 fa 44 81 
10 4d 6f 00 00 05 00 00 00 0a 85 00 00 fa 44 81 
10 4d 99 00 00 05 00 00 00 0a 85 00 00 fa 44 81 
10 4d 91 00 00 05 00 00 00 0a 85 00 00 fa 44 81 
10 4d fd 00 00 05 00 00 00 0a 85 00 00 fa 44 81 
10 4e 67 00 00 05 00 00 00 0a 85 00 00 fa 44 81 
10 4e 5c 00 00 05 00 00 00 0a 85 00 00 fa 44 81 
10 4e 27 00 00 05 00 00 00 0a 85 00 00 fa 44 81 
10 4e 29 00 00 05 00 00 00 0a 85 00 00 fa 44 81 
10 4e 35 00 00 05 00 00 00 0a 85 00 00 fa 44 81 
10 4e 84 00 00 05 00 00 00 0a 85 00 00 fa 44 81 
10 4e 35 00 00 05 00 00 00 0a 85 00 00 fa 44 81 
10 4e 7c 00 00 05 00 00 00 0a 85 00 00 fa 44 81 
10 4e 2e 00 00 05 00 00 00 0a 85 00 00 fa 44 81 
10 4e 8b 00 00 05 00 00 00 0a 85 00 00 fa 44 81 
10 4d f5 00 00 05 00 00 00 0a 85 00 00 fa 44 81 
10 4e 3a 00 00 05 00 00 00 0a 85 00 00 fa 44 81 
10 4e 3b 00 00 05 00 00 00 0a 85 00 00 fa 44 81 
10 4e 6f 00 00 05 00 00 00 0a 85 00 00 fa 44 81 
10 4f 17 00 00 05 00 00 00 0a 85 00 00 fa 44 81 
10 4e aa 00 00 05 00 00 00 0a 85 00 00 fa 44 81 
10 4f 29 00 00 05 00 00 00 0a 85 00 00 fa 44 81 
10 4f 32 00 00 05 00 00 00 0a 85 00 00 fa 44 81 
10 4f 47 00 00 05 00 00 00 0a 85 00 00 fa 44 81 
10 4f be 00 00 05 00 00 00 0a 85 00 00 fa 44 81 
10 4f b3 00 00 05 00 00 00 0a 85 00 00 fa 44 81 
10 50 38 00 00 05 00 00 00 0a 85 00 00 fa 44 81 
10 50 28 00 00 05 00 00 00 0a 85 00 00 fa 44 81 
10 50 4d 00 00 05 00 00 00 0a 85 00 00 fa 44 81 
10 4f 9f 00 00 05 00 00 00 0a 85 00 00 fa 44 81 
10 50 2b 00 00 05 00 00 00 0a 85 00 00 fa 44 81 
10 4f ae 00 00 05 00 00 00 0a 85 00 00 fa 44 81 
10 4f bf 00 00 05 00 00 00 0a 85 00 00 fa 44 81 
10 50 55 00 00 05 00 00 00 0a 85 00 00 fa 44 81 
10 50 46 00 00 05 00 00 00 0a 85 00 00 fa 44 81 
10 50 52 00 00 05 00 00 00 0a 85 00 00 fa 44 81 
10 50 24 00 00 05 00 00 00 0a 85 00 00 fa 44 81 
10 50 37 00 00 05 00 00 00 0a 85 00 00 fa 44 81 
10 50 5a 00 00 05 00 00 00 0a 85 00 00 fa 44 81 
10 50 9a 00 00 05 00 00 00 0a 85 00 00 fa 44 81 
10 50 c9 00 00 05 00 00 00 0a 85 00 00 fa 44 81 
