e0 00 e9 00 67 fa 5e 00 00 00 00 01 00 01 00 00 
e0 00 e9 00 67 fa 5e 00 00 00 00 01 00 01 00 00 
e2 e5 af 00 67 fa 5e 00 00 00 00 01 00 01 00 00 
ee bf 4b 00 67 fa 5e 00 00 00 00 01 00 01 00 00 
f5 c4 a0 00 67 fa 5e 00 00 00 00 01 00 01 00 00 
f9 ed be 00 67 fa 5e 00 00 00 00 01 00 01 00 00 
fc 65 1f 00 67 fa 5e 00 00 00 00 01 00 01 00 00 
fd dc 48 00 67 fa 5e 00 00 00 00 01 00 01 00 00 
fe ba 53 00 67 fa 5e 00 00 00 00 01 00 01 00 00 
ff 3d af 00 67 fa 5e 00 00 00 00 01 00 01 00 00 
ff 8c 1e 00 67 fa 5e 00 00 00 00 01 00 01 00 00 
ff ba 72 00 67 fa 5e 00 00 00 00 01 00 01 00 00 
ff d5 a2 00 67 fa 5e 00 00 00 00 01 00 01 00 00 
ff e5 ac 00 67 fa 5e 00 00 00 00 01 00 01 00 00 
ff ef a0 00 67 fa 5e 00 00 00 00 01 00 01 00 00 
ff f5 93 00 67 fa 5e 00 00 00 00 01 00 01 00 00 
ff f8 c4 00 67 fa 5e 00 00 00 00 01 00 01 00 00 
ff fb 06 00 67 fa 5e 00 00 00 00 01 00 01 00 00 
ff fc 26 00 67 fa 5e 00 00 00 00 01 00 01 00 00 
ff fc bf 00 67 fa 5e 00 00 00 00 01 00 01 00 00 
ff fd 77 00 67 fa 5e 00 00 00 00 01 00 01 00 00 
00 01 24 00 67 fa 5e 00 00 00 00 01 00 01 00 00 
00 03 f6 00 67 fa 5e 00 00 00 00 01 00 01 00 00 
00 05 68 00 67 fa 5e 00 00 00 00 01 00 01 00 00 
00 06 6e 00 67 fa 5e 00 00 00 00 01 00 01 00 00 
00 06 bb 00 67 fa 5e 00 00 00 00 01 00 01 00 00 
00 07 0b 00 67 fa 5e 00 00 00 00 01 00 01 00 00 
00 07 b2 00 67 fa 5e 00 00 00 00 01 00 01 00 00 
00 07 62 00 67 fa 5e 00 00 00 00 01 00 01 00 00 
00 07 6b 00 67 fa 5e 00 00 00 00 01 00 01 00 00 
00 07 4b 00 67 fa 5e 00 00 00 00 01 00 01 00 00 
00 07 90 00 67 fa 5e 00 00 00 00 01 00 01 00 00 
00 07 6d 00 67 fa 5e 00 00 00 00 01 00 01 00 00 
00 07 73 00 67 fa 5e 00 00 00 00 01 00 01 00 00 
00 07 ae 00 67 fa 5e 00 00 00 00 01 00 01 00 00 
00 07 60 00 67 fa 5e 00 00 00 00 01 00 01 00 00 
00 07 a1 00 67 fa 5e 00 00 00 00 01 00 01 00 00 
00 07 54 00 67 fa 5e 00 00 00 00 01 00 01 00 00 
00 07 4b 00 67 fa 5e 00 00 00 00 01 00 01 00 00 
00 07 58 00 67 fa 5e 00 00 00 00 01 00 01 00 00 
00 04 92 00 67 fa 5e 00 00 00 00 01 00 01 00 00 
00 04 c1 00 67 fa 5e 00 00 00 00 01 00 01 00 00 
00 04 27 00 67 fa 5e 00 00 00 00 01 00 01 00 00 
00 04 05 00 67 fa 5e 00 00 00 00 01 00 01 00 00 
00 04 4e 00 67 fa 5e 00 00 00 00 01 00 01 00 00 
00 04 50 00 67 fa 5e 00 00 00 00 01 00 01 00 00 
00 04 2d 00 67 fa 5e 00 00 00 00 01 00 01 00 00 
00 04 44 00 67 fa 5e 00 00 00 00 01 00 01 00 00 
00 04 52 00 67 fa 5e 00 00 00 00 01 00 01 00 00 
00 04 52 00 67 fa 5e 00 00 00 00 01 00 01 00 00 
00 04 6a 00 67 fa 5e 00 00 00 00 01 00 01 00 00 
00 04 74 00 67 fa 5e 00 00 00 00 01 00 01 00 00 
00 04 85 00 67 fa 5e 00 00 00 00 01 00 01 00 00 
00 04 55 00 67 fa 5e 00 00 00 00 01 00 01 00 00 
00 04 34 00 67 fa 5e 00 00 00 00 01 00 01 00 00 
00 04 12 00 67 fa 5e 00 00 00 00 01 00 01 00 00 
00 04 90 00 67 fa 5e 00 00 00 00 01 00 01 00 00 
00 04 38 00 67 fa 5e 00 00 00 00 01 00 01 00 00 
00 04 46 00 67 fa 5e 00 00 00 00 01 00 01 00 00 
00 04 8c 00 67 fa 5e 00 00 00 00 01 00 01 00 00 
00 04 66 00 67 fa 5e 00 00 00 00 01 00 01 00 00 
00 04 09 00 67 fa 5e 00 00 00 00 01 00 01 00 00 
00 04 01 00 67 fa 5e 00 00 00 00 01 00 01 00 00 
00 04 4e 00 67 fa 5e 00 00 00 00 01 00 01 00 00 
00 04 6c 00 67 fa 5e 00 00 00 00 01 00 01 00 00 
00 04 2d 00 67 fa 5e 00 00 00 00 01 00 01 00 00 
00 04 85 00 67 fa 5e 00 00 00 00 01 00 01 00 00 
00 03 d6 00 67 fa 5e 00 00 00 00 01 00 01 00 00 
00 04 18 00 67 fa 5e 00 00 00 00 01 00 01 00 00 
00 04 25 00 67 fa 5e 00 00 00 00 01 00 01 00 00 
00 04 32 00 67 fa 5e 00 00 00 00 01 00 01 00 00 
00 04 3c 00 67 fa 5e 00 00 00 00 01 00 01 00 00 
00 03 f0 00 67 fa 5e 00 00 00 00 01 00 01 00 00 
00 04 6a 00 67 fa 5e 00 00 00 00 01 00 01 00 00 
00 04 5b 00 67 fa 5e 00 00 00 00 01 00 01 00 00 
00 04 59 00 67 fa 5e 00 00 00 00 01 00 01 00 00 
00 04 70 00 67 fa 5e 00 00 00 00 01 00 01 00 00 
00 04 36 00 67 fa 5e 00 00 00 00 01 00 01 00 00 
00 04 66 00 67 fa 5e 00 00 00 00 01 00 01 00 00 
00 04 12 00 67 fa 5e 00 00 00 00 01 00 01 00 00 
00 04 44 00 67 fa 5e 00 00 00 00 01 00 01 00 00 
00 04 74 00 67 fa 5e 00 00 00 00 01 00 01 00 00 
00 04 63 00 67 fa 5e 00 00 00 00 01 00 01 00 00 
00 04 90 00 67 fa 5e 00 00 00 00 01 00 01 00 00 
00 04 48 00 67 fa 5e 00 00 00 00 01 00 01 00 00 
00 04 72 00 67 fa 5e 00 00 00 00 01 00 01 00 00 
00 04 3a 00 67 fa 5e 00 00 00 00 01 00 01 00 00 
00 04 1c 00 67 fa 5e 00 00 00 00 01 00 01 00 00 
00 04 8e 00 67 fa 5e 00 00 00 00 01 00 01 00 00 
00 04 b8 00 67 fa 5e 00 00 00 00 01 00 01 00 00 
00 04 96 00 67 fa 5e 00 00 00 00 01 00 01 00 00 
00 04 b2 00 67 fa 5e 00 00 00 00 01 00 01 00 00 
00 04 9d 00 67 fa 5e 00 00 00 00 01 00 01 00 00 
00 04 44 00 67 fa 5e 00 00 00 00 01 00 01 00 00 
00 04 70 00 67 fa 5e 00 00 00 00 01 00 01 00 00 
00 03 e9 00 67 fa 5e 00 00 00 00 01 00 01 00 00 
00 04 59 00 67 fa 5e 00 00 00 00 01 00 01 00 00 
00 04 70 00 67 fa 5e 00 00 00 00 01 00 01 00 00 
00 04 36 00 67 fa 5e 00 00 00 00 01 00 01 00 00 
00 04 59 00 67 fa 5e 00 00 00 00 01 00 01 00 00 
00 04 5f 00 67 fa 5e 00 00 00 00 01 00 01 00 00 
00 04 3e 00 67 fa 5e 00 00 00 00 01 00 01 00 00 
00 04 36 00 67 fa 5e 00 00 00 00 01 00 01 00 00 
00 04 88 00 67 fa 5e 00 00 00 00 01 00 01 00 00 
00 04 3e 00 67 fa 5e 00 00 00 00 01 00 01 00 00 
00 04 55 00 67 fa 5e 00 00 00 00 01 00 01 00 00 
00 03 f6 00 67 fa 5e 00 00 00 00 01 00 01 00 00 
00 04 12 00 67 fa 5e 00 00 00 00 01 00 01 00 00 
00 04 2b 00 00 36 70 00 00 ee 24 00 00 9c 24 00 
00 04 36 00 00 00 00 00 00 05 00 00 00 01 00 00 
00 04 25 00 00 00 00 00 00 05 00 00 00 01 00 00 
00 04 3c 00 00 00 00 00 00 05 00 00 00 01 00 00 
00 04 2d 00 00 00 00 00 00 05 00 00 00 01 00 00 
00 04 79 00 00 00 00 00 00 05 00 00 00 01 00 00 
00 04 72 00 00 00 00 00 00 05 00 00 00 01 00 00 
00 04 48 00 00 00 00 00 00 05 00 00 00 01 00 00 
00 04 3c 00 00 00 00 00 00 05 00 00 00 01 00 00 
00 04 55 00 00 00 00 00 00 05 00 00 00 01 00 00 
00 04 38 00 00 00 00 00 00 05 00 00 00 01 00 00 
00 04 72 00 00 00 00 00 00 05 00 00 00 01 00 00 
00 04 5f 00 00 00 00 00 00 05 00 00 00 01 00 00 
00 04 59 00 00 00 00 00 00 05 00 00 00 01 00 00 
00 04 6e 00 00 00 00 00 00 05 00 00 00 01 00 00 
00 04 81 00 00 00 00 00 00 05 00 00 00 01 00 00 
00 04 05 00 00 00 00 00 00 05 00 00 00 01 00 00 
00 04 40 00 00 00 00 00 00 05 00 00 00 01 00 00 
00 04 3a 00 00 00 00 00 00 05 00 00 00 01 00 00 
00 04 2d 00 00 00 00 00 00 05 00 00 00 01 00 00 
00 04 03 00 00 00 00 00 00 05 00 00 00 01 00 00 
00 04 29 00 00 00 00 00 00 05 00 00 00 01 00 00 
00 04 1c 00 00 00 00 00 00 05 00 00 00 01 00 00 
00 04 16 00 00 00 00 00 00 05 00 00 00 01 00 00 
00 04 2d 00 00 00 00 00 00 05 00 00 00 01 00 00 
00 04 01 00 00 00 00 00 00 05 00 00 00 01 00 00 
00 04 61 00 00 00 00 00 00 05 00 00 00 01 00 00 
00 04 81 00 00 00 00 00 00 05 00 00 00 01 00 00 
00 04 4e 00 00 00 00 00 00 05 00 00 00 01 00 00 
00 04 1c 00 00 00 00 00 00 05 00 00 00 01 00 00 
00 04 09 00 00 00 00 00 00 05 00 00 00 01 00 00 
00 03 da 00 00 00 00 00 00 05 00 00 00 01 00 00 
00 04 10 00 00 00 00 00 00 05 00 00 00 01 00 00 
00 04 6e 00 00 00 00 00 00 05 00 00 00 01 00 00 
00 04 9b 00 00 00 00 00 00 05 00 00 00 01 00 00 
00 04 3a 00 00 00 00 00 00 05 00 00 00 01 00 00 
00 04 66 00 00 00 00 00 00 05 00 00 00 01 00 00 
00 04 55 00 00 00 00 00 00 05 00 00 00 01 00 00 
00 04 50 00 00 00 00 00 00 05 00 00 00 01 00 00 
00 04 63 00 00 00 00 00 00 05 00 00 00 01 00 00 
00 04 4a 00 00 00 00 00 00 05 00 00 00 01 00 00 
00 04 2f 00 00 00 00 00 00 05 00 00 00 01 00 00 
00 04 5b 00 00 00 00 00 00 05 00 00 00 01 00 00 
00 04 2f 00 00 00 00 00 00 05 00 00 00 01 00 00 
00 04 2d 00 00 00 00 00 00 05 00 00 00 01 00 00 
00 04 46 00 00 00 00 00 00 05 00 00 00 01 00 00 
00 04 61 00 00 00 00 00 00 05 00 00 00 01 00 00 
00 04 5b 00 00 00 00 00 00 05 00 00 00 01 00 00 
00 04 52 00 00 00 00 00 00 05 00 00 00 01 00 00 
00 04 61 00 00 00 00 00 00 05 00 00 00 01 00 00 
00 04 05 00 00 00 00 00 00 05 00 00 00 01 00 00 
00 04 52 00 00 00 00 00 00 05 00 00 00 01 00 00 
00 04 ac 00 00 00 00 00 00 05 00 00 00 01 00 00 
00 04 5d 00 00 00 00 00 00 05 00 00 00 01 00 00 
00 04 c1 00 00 00 00 00 00 05 00 00 00 01 00 00 
00 04 63 00 00 00 00 00 00 05 00 00 00 01 00 00 
00 04 18 00 00 00 00 00 00 05 00 00 00 01 00 00 
00 04 85 00 00 00 00 00 00 05 00 00 00 01 00 00 
00 04 5b 00 00 00 00 00 00 05 00 00 00 01 00 00 
00 04 a5 00 00 00 00 00 00 05 00 00 00 01 00 00 
00 04 7f 00 00 00 00 00 00 05 00 00 00 01 00 00 
00 04 b8 00 00 00 00 00 00 05 00 00 00 01 00 00 
00 04 83 00 00 00 00 00 00 05 00 00 00 01 00 00 
00 04 88 00 00 00 00 00 00 05 00 00 00 01 00 00 
00 04 74 00 00 00 00 00 00 05 00 00 00 01 00 00 
00 04 57 00 00 00 00 00 00 05 00 00 00 01 00 00 
00 04 99 00 00 00 00 00 00 05 00 00 00 01 00 00 
00 04 36 00 00 00 00 00 00 05 00 00 00 01 00 00 
00 04 5b 00 00 00 00 00 00 05 00 00 00 01 00 00 
00 04 6e 00 00 00 00 00 00 05 00 00 00 01 00 00 
00 04 61 00 00 00 00 00 00 05 00 00 00 01 00 00 
00 04 3a 00 00 00 00 00 00 05 00 00 00 01 00 00 
00 04 4a 00 00 00 00 00 00 05 00 00 00 01 00 00 
00 04 68 00 00 00 00 00 00 05 00 00 00 01 00 00 
00 04 34 00 00 00 00 00 00 05 00 00 00 01 00 00 
00 04 5b 00 00 00 00 00 00 05 00 00 00 01 00 00 
00 04 0b 00 00 00 00 00 00 05 00 00 00 01 00 00 
00 04 99 00 00 00 00 00 00 05 00 00 00 01 00 00 
00 04 a7 00 00 00 00 00 00 05 00 00 00 01 00 00 
00 04 61 00 00 00 00 00 00 05 00 00 00 01 00 00 
00 04 4a 00 00 00 00 00 00 05 00 00 00 01 00 00 
00 04 5d 00 00 00 00 00 00 05 00 00 00 01 00 00 
00 04 21 00 00 00 00 00 00 05 00 00 00 01 00 00 
00 04 32 00 00 00 00 00 00 05 00 00 00 01 00 00 
00 04 1e 00 00 00 00 00 00 05 00 00 00 01 00 00 
00 03 fa 00 00 00 00 00 00 05 00 00 00 01 00 00 
00 04 74 00 00 00 00 00 00 05 00 00 00 01 00 00 
00 04 29 00 00 00 00 00 00 05 00 00 00 01 00 00 
00 04 bd 00 00 00 00 00 00 05 00 00 00 01 00 00 
00 04 94 00 00 00 00 00 00 05 00 00 00 01 00 00 
00 04 81 00 00 00 00 00 00 05 00 00 00 01 00 00 
00 04 b4 00 00 00 00 00 00 05 00 00 00 01 00 00 
00 04 2d 00 00 00 00 00 00 05 00 00 00 01 00 00 
00 04 5b 00 00 00 00 00 00 05 00 00 00 01 00 00 
00 04 50 00 00 00 00 00 00 05 00 00 00 01 00 00 
00 04 85 00 00 00 00 00 00 05 00 00 00 01 00 00 
00 04 5b 00 00 00 00 00 00 05 00 00 00 01 00 00 
00 04 e3 00 00 00 00 00 00 05 00 00 00 01 00 00 
00 04 3a 00 00 00 00 00 00 05 00 00 00 01 00 00 
00 04 4c 00 00 00 00 00 00 05 00 00 00 01 00 00 
00 04 81 00 00 00 00 00 00 05 00 00 00 01 00 00 
00 04 6a 00 00 00 00 00 00 05 00 00 00 01 00 00 
00 04 d0 00 00 00 00 00 00 05 00 00 00 01 00 00 
00 04 2b 00 00 00 00 00 00 05 00 00 00 01 00 00 
00 04 c1 00 00 00 00 00 00 05 00 00 00 01 00 00 
00 04 9b 00 00 00 00 00 00 05 00 00 00 01 00 00 
00 04 79 00 00 00 00 00 00 05 00 00 00 01 00 00 
00 04 4a 00 00 00 00 00 00 05 00 00 00 01 00 00 
00 04 1c 00 00 00 00 00 00 05 00 00 00 01 00 00 
00 04 48 00 00 00 00 00 00 05 00 00 00 01 00 00 
00 04 9d 00 00 00 00 00 00 05 00 00 00 01 00 00 
00 04 6e 00 00 00 00 00 00 05 00 00 00 01 00 00 
00 04 a7 00 00 00 00 00 00 05 00 00 00 01 00 00 
00 04 48 00 00 00 00 00 00 05 00 00 00 01 00 00 
00 04 88 00 00 00 00 00 00 05 00 00 00 01 00 00 
00 04 9d 00 00 00 00 00 00 05 00 00 00 01 00 00 
00 04 4e 00 00 00 00 00 00 05 00 00 00 01 00 00 
00 04 79 00 00 00 00 00 00 05 00 00 00 01 00 00 
00 04 b8 00 00 00 00 00 00 05 00 00 00 01 00 00 
00 04 99 00 00 00 00 00 00 05 00 00 00 01 00 00 
00 04 aa 00 00 00 00 00 00 05 00 00 00 01 00 00 
00 04 94 00 00 00 00 00 00 05 00 00 00 01 00 00 
00 04 88 00 00 00 00 00 00 05 00 00 00 01 00 00 
00 04 92 00 00 00 00 00 00 05 00 00 00 01 00 00 
00 04 c1 00 00 00 00 00 00 05 00 00 00 01 00 00 
00 04 bf 00 00 00 00 00 00 05 00 00 00 01 00 00 
00 04 7f 00 00 00 00 00 00 05 00 00 00 01 00 00 
00 04 72 00 00 00 00 00 00 05 00 00 00 01 00 00 
00 04 99 00 00 00 00 00 00 05 00 00 00 01 00 00 
00 04 81 00 00 00 00 00 00 05 00 00 00 01 00 00 
00 04 3a 00 00 00 00 00 00 05 00 00 00 01 00 00 
00 04 70 00 00 00 00 00 00 05 00 00 00 01 00 00 
00 04 46 00 00 00 00 00 00 05 00 00 00 01 00 00 
00 04 2d 00 00 00 00 00 00 05 00 00 00 01 00 00 
00 04 57 00 00 00 00 00 00 05 00 00 00 01 00 00 
00 03 fa 00 00 00 00 00 00 05 00 00 00 01 00 00 
00 04 6c 00 00 00 00 00 00 05 00 00 00 01 00 00 
00 04 96 00 00 00 00 00 00 05 00 00 00 01 00 00 
00 04 7d 00 00 00 00 00 00 05 00 00 00 01 00 00 
00 04 7f 00 00 00 00 00 00 05 00 00 00 01 00 00 
00 04 32 00 00 00 00 00 00 05 00 00 00 01 00 00 
00 04 09 00 00 00 00 00 00 05 00 00 00 01 00 00 
00 04 6c 00 00 00 00 00 00 05 00 00 00 01 00 00 
00 03 e7 00 00 00 00 00 00 05 00 00 00 01 00 00 
00 04 57 00 00 00 00 00 00 05 00 00 00 01 00 00 
00 04 1c 00 00 00 00 00 00 05 00 00 00 01 00 00 
00 04 7f 00 00 00 00 00 00 05 00 00 00 01 00 00 
00 04 96 00 00 00 00 00 00 05 00 00 00 01 00 00 
00 04 70 00 00 00 00 00 00 05 00 00 00 01 00 00 
00 04 79 00 00 00 00 00 00 05 00 00 00 01 00 00 
00 04 94 00 00 00 00 00 00 05 00 00 00 01 00 00 
00 04 70 00 00 00 00 00 00 05 00 00 00 01 00 00 
00 04 29 00 00 00 00 00 00 05 00 00 00 01 00 00 
00 04 68 00 00 00 00 00 00 05 00 00 00 01 00 00 
00 04 50 00 00 00 00 00 00 05 00 00 00 01 00 00 
00 04 12 00 00 00 00 00 00 05 00 00 00 01 00 00 
00 04 10 00 00 00 00 00 00 05 00 00 00 01 00 00 
00 04 12 00 00 00 00 00 00 05 00 00 00 01 00 00 
00 04 23 00 00 00 00 00 00 05 00 00 00 01 00 00 
00 04 0d 00 00 00 00 00 00 05 00 00 00 01 00 00 
00 04 46 00 00 00 00 00 00 05 00 00 00 01 00 00 
00 04 c5 00 00 00 00 00 00 05 00 00 00 01 00 00 
00 04 a5 00 00 00 00 00 00 05 00 00 00 01 00 00 
00 04 c7 00 00 00 00 00 00 05 00 00 00 01 00 00 
00 03 f4 00 00 00 00 00 00 05 00 00 00 01 00 00 
00 04 68 00 00 00 00 00 00 05 00 00 00 01 00 00 
00 04 7d 00 00 00 00 00 00 05 00 00 00 01 00 00 
00 04 57 00 00 00 00 00 00 05 00 00 00 01 00 00 
00 04 bf 00 00 00 00 00 00 05 00 00 00 01 00 00 
00 04 72 00 00 00 00 00 00 05 00 00 00 01 00 00 
00 04 9b 00 00 00 00 00 00 05 00 00 00 01 00 00 
00 04 eb 00 00 00 00 00 00 05 00 00 00 01 00 00 
00 04 a1 00 00 00 00 00 00 05 00 00 00 01 00 00 
00 04 57 00 00 00 00 00 00 05 00 00 00 01 00 00 
00 04 7f 00 00 00 00 00 00 05 00 00 00 01 00 00 
00 04 83 00 00 00 00 00 00 05 00 00 00 01 00 00 
00 04 10 00 00 00 00 00 00 05 00 00 00 01 00 00 
00 04 3e 00 00 00 00 00 00 05 00 00 00 01 00 00 
00 04 5b 00 00 00 00 00 00 05 00 00 00 01 00 00 
00 04 4e 00 00 00 00 00 00 05 00 00 00 01 00 00 
00 04 3c 00 00 00 00 00 00 05 00 00 00 01 00 00 
00 04 32 00 00 00 00 00 00 05 00 00 00 01 00 00 
00 04 2f 00 00 00 00 00 00 05 00 00 00 01 00 00 
00 04 3a 00 00 00 00 00 00 05 00 00 00 01 00 00 
00 04 46 00 00 00 00 00 00 05 00 00 00 01 00 00 
00 04 74 00 00 00 00 00 00 05 00 00 00 01 00 00 
00 04 32 00 00 00 00 00 00 05 00 00 00 01 00 00 
00 03 f0 00 00 00 00 00 00 05 00 00 00 01 00 00 
00 04 0b 00 00 00 00 00 00 05 00 00 00 01 00 00 
00 04 52 00 00 00 00 00 00 05 00 00 00 01 00 00 
00 03 fa 00 00 00 00 00 00 05 00 00 00 01 00 00 
00 04 4a 00 00 00 00 00 00 05 00 00 00 01 00 00 
00 04 68 00 00 00 00 00 00 05 00 00 00 01 00 00 
00 04 8a 00 00 00 00 00 00 05 00 00 00 01 00 00 
00 04 79 00 00 00 00 00 00 05 00 00 00 01 00 00 
00 04 d0 00 00 00 00 00 00 05 00 00 00 01 00 00 
00 04 5f 00 00 00 00 00 00 05 00 00 00 01 00 00 
00 04 2f 00 00 00 00 00 00 05 00 00 00 01 00 00 
00 04 12 00 00 00 00 00 00 05 00 00 00 01 00 00 
00 04 6c 00 00 00 00 00 00 05 00 00 00 01 00 00 
00 04 6c 00 00 00 00 00 00 05 00 00 00 01 00 00 
00 04 77 00 00 00 00 00 00 05 00 00 00 01 00 00 
00 04 23 00 00 00 00 00 00 05 00 00 00 01 00 00 
00 04 0d 00 00 00 00 00 00 05 00 00 00 01 00 00 
00 04 09 00 00 00 00 00 00 05 00 00 00 01 00 00 
00 03 e9 00 00 00 00 00 00 05 00 00 00 01 00 00 
00 04 12 00 00 00 00 00 00 05 00 00 00 01 00 00 
00 04 4a 00 00 00 00 00 00 05 00 00 00 01 00 00 
00 04 48 00 00 00 00 00 00 05 00 00 00 01 00 00 
00 04 1a 00 00 00 00 00 00 05 00 00 00 01 00 00 
00 04 63 00 00 00 00 00 00 05 00 00 00 01 00 00 
00 04 57 00 00 00 00 00 00 05 00 00 00 01 00 00 
00 04 48 00 00 00 00 00 00 05 00 00 00 01 00 00 
00 04 b6 00 00 00 00 00 00 05 00 00 00 01 00 00 
00 04 3e 00 00 00 00 00 00 05 00 00 00 01 00 00 
00 04 6a 00 00 00 00 00 00 05 00 00 00 01 00 00 
00 04 6a 00 00 00 00 00 00 05 00 00 00 01 00 00 
00 04 3e 00 00 00 00 00 00 05 00 00 00 01 00 00 
00 04 72 00 00 00 00 00 00 05 00 00 00 01 00 00 
00 04 ce 00 00 00 00 00 00 05 00 00 00 01 00 00 
00 04 55 00 00 00 00 00 00 05 00 00 00 01 00 00 
00 04 79 00 00 00 00 00 00 05 00 00 00 01 00 00 
00 04 b2 00 00 00 00 00 00 05 00 00 00 01 00 00 
00 04 72 00 00 00 00 00 00 05 00 00 00 01 00 00 
00 04 72 00 00 00 00 00 00 05 00 00 00 01 00 00 
00 04 4a 00 00 00 00 00 00 05 00 00 00 01 00 00 
00 04 3a 00 00 00 00 00 00 05 00 00 00 01 00 00 
00 04 52 00 00 00 00 00 00 05 00 00 00 01 00 00 
00 03 ff 00 00 00 00 00 00 05 00 00 00 01 00 00 
00 04 59 00 00 00 00 00 00 05 00 00 00 01 00 00 
00 04 92 00 00 00 00 00 00 05 00 00 00 01 00 00 
00 04 5b 00 00 00 00 00 00 05 00 00 00 01 00 00 
00 04 18 00 00 00 00 00 00 05 00 00 00 01 00 00 
00 04 7f 00 00 00 00 00 00 05 00 00 00 01 00 00 
00 04 a5 00 00 00 00 00 00 05 00 00 00 01 00 00 
00 04 ac 00 00 00 00 00 00 05 00 00 00 01 00 00 
00 04 66 00 00 00 00 00 00 05 00 00 00 01 00 00 
00 04 8a 00 00 00 00 00 00 05 00 00 00 01 00 00 
00 04 b4 00 00 00 00 00 00 05 00 00 00 01 00 00 
00 04 d4 00 00 00 00 00 00 05 00 00 00 01 00 00 
00 04 66 00 00 00 00 00 00 05 00 00 00 01 00 00 
00 04 9b 00 00 00 00 00 00 05 00 00 00 01 00 00 
00 04 7f 00 00 00 00 00 00 05 00 00 00 01 00 00 
00 04 5d 00 00 00 00 00 00 05 00 00 00 01 00 00 
00 04 a1 00 00 00 00 00 00 05 00 00 00 01 00 00 
00 04 b8 00 00 00 00 00 00 05 00 00 00 01 00 00 
00 04 d0 00 00 00 00 00 00 05 00 00 00 01 00 00 
00 04 f6 00 00 00 00 00 00 05 00 00 00 01 00 00 
00 04 e7 00 00 00 00 00 00 05 00 00 00 01 00 00 
00 04 df 00 00 00 00 00 00 05 00 00 00 01 00 00 
00 04 81 00 00 00 00 00 00 05 00 00 00 01 00 00 
00 04 79 00 00 00 00 00 00 05 00 00 00 01 00 00 
00 04 46 00 00 00 00 00 00 05 00 00 00 01 00 00 
00 04 d4 00 00 00 00 00 00 05 00 00 00 01 00 00 
00 04 bb 00 00 00 00 00 00 05 00 00 00 01 00 00 
00 04 8c 00 00 00 00 00 00 05 00 00 00 01 00 00 
00 04 21 00 00 00 00 00 00 05 00 00 00 01 00 00 
00 04 70 00 00 00 00 00 00 05 00 00 00 01 00 00 
00 04 8e 00 00 00 00 00 00 05 00 00 00 01 00 00 
00 04 74 00 00 00 00 00 00 05 00 00 00 01 00 00 
00 04 72 00 00 00 00 00 00 05 00 00 00 01 00 00 
00 04 25 00 00 00 00 00 00 05 00 00 00 01 00 00 
00 04 27 00 00 00 00 00 00 05 00 00 00 01 00 00 
00 04 50 00 00 00 00 00 00 05 00 00 00 01 00 00 
00 04 5f 00 00 00 00 00 00 05 00 00 00 01 00 00 
00 04 6e 00 00 00 00 00 00 05 00 00 00 01 00 00 
00 04 a5 00 00 00 00 00 00 05 00 00 00 01 00 00 
00 04 52 00 00 00 00 00 00 05 00 00 00 01 00 00 
00 04 a7 00 00 00 00 00 00 05 00 00 00 01 00 00 
00 04 5d 00 00 00 00 00 00 05 00 00 00 01 00 00 
00 04 40 00 00 00 00 00 00 05 00 00 00 01 00 00 
00 04 6c 00 00 00 00 00 00 05 00 00 00 01 00 00 
00 04 32 00 00 00 00 00 00 05 00 00 00 01 00 00 
00 04 66 00 00 00 00 00 00 05 00 00 00 01 00 00 
00 04 57 00 00 00 00 00 00 05 00 00 00 01 00 00 
00 04 c1 00 00 00 00 00 00 05 00 00 00 01 00 00 
00 04 b2 00 00 00 00 00 00 05 00 00 00 01 00 00 
00 04 7b 00 00 00 00 00 00 05 00 00 00 01 00 00 
00 04 27 00 00 00 00 00 00 05 00 00 00 01 00 00 
00 04 59 00 00 00 00 00 00 05 00 00 00 01 00 00 
00 04 8c 00 00 00 00 00 00 05 00 00 00 01 00 00 
00 04 8a 00 00 00 00 00 00 05 00 00 00 01 00 00 
00 04 40 00 00 00 00 00 00 05 00 00 00 01 00 00 
00 04 7d 00 00 00 00 00 00 05 00 00 00 01 00 00 
00 04 5d 00 00 00 00 00 00 05 00 00 00 01 00 00 
00 04 25 00 00 00 00 00 00 05 00 00 00 01 00 00 
00 04 3e 00 00 00 00 00 00 05 00 00 00 01 00 00 
00 04 92 00 00 00 00 00 00 05 00 00 00 01 00 00 
00 04 72 00 00 00 00 00 00 05 00 00 00 01 00 00 
00 04 9f 00 00 00 00 00 00 05 00 00 00 01 00 00 
00 04 aa 00 00 00 00 00 00 05 00 00 00 01 00 00 
00 04 8a 00 00 00 00 00 00 05 00 00 00 01 00 00 
00 04 38 00 00 00 00 00 00 05 00 00 00 01 00 00 
00 04 b4 00 00 00 00 00 00 05 00 00 00 01 00 00 
00 04 bf 00 00 00 00 00 00 05 00 00 00 01 00 00 
00 04 72 00 00 00 00 00 00 05 00 00 00 01 00 00 
00 04 72 00 00 00 00 00 00 05 00 00 00 01 00 00 
00 04 3c 00 00 00 00 00 00 05 00 00 00 01 00 00 
00 04 6e 00 00 00 00 00 00 05 00 00 00 01 00 00 
00 04 72 00 00 00 00 00 00 05 00 00 00 01 00 00 
00 04 7f 00 00 00 00 00 00 05 00 00 00 01 00 00 
00 04 83 00 00 00 00 00 00 05 00 00 00 01 00 00 
00 04 8c 00 00 00 00 00 00 05 00 00 00 01 00 00 
00 03 ee 00 00 00 00 00 00 05 00 00 00 01 00 00 
00 04 8c 00 00 00 00 00 00 05 00 00 00 01 00 00 
00 04 5f 00 00 00 00 00 00 05 00 00 00 01 00 00 
00 04 44 00 00 00 00 00 00 05 00 00 00 01 00 00 
00 04 2d 00 00 00 00 00 00 05 00 00 00 01 00 00 
00 04 6e 00 00 00 00 00 00 05 00 00 00 01 00 00 
00 04 57 00 00 00 00 00 00 05 00 00 00 01 00 00 
00 04 9b 00 00 00 00 00 00 05 00 00 00 01 00 00 
00 04 63 00 00 00 00 00 00 05 00 00 00 01 00 00 
00 04 81 00 00 00 00 00 00 05 00 00 00 01 00 00 
00 04 7f 00 00 00 00 00 00 05 00 00 00 01 00 00 
00 04 9b 00 00 00 00 00 00 05 00 00 00 01 00 00 
00 04 c7 00 00 00 00 00 00 05 00 00 00 01 00 00 
00 04 74 00 00 00 00 00 00 05 00 00 00 01 00 00 
00 04 83 00 00 00 00 00 00 05 00 00 00 01 00 00 
00 04 3e 00 00 00 00 00 00 05 00 00 00 01 00 00 
00 04 8c 00 00 00 00 00 00 05 00 00 00 01 00 00 
00 04 25 00 00 00 00 00 00 05 00 00 00 01 00 00 
00 04 8a 00 00 00 00 00 00 05 00 00 00 01 00 00 
00 04 4e 00 00 00 00 00 00 05 00 00 00 01 00 00 
00 04 d4 00 00 00 00 00 00 05 00 00 00 01 00 00 
00 04 81 00 00 00 00 00 00 05 00 00 00 01 00 00 
00 04 c5 00 00 00 00 00 00 05 00 00 00 01 00 00 
00 04 b8 00 00 00 00 00 00 05 00 00 00 01 00 00 
00 04 a1 00 00 00 00 00 00 05 00 00 00 01 00 00 
00 04 aa 00 00 00 00 00 00 05 00 00 00 01 00 00 
00 04 34 00 00 00 00 00 00 05 00 00 00 01 00 00 
00 04 70 00 00 00 00 00 00 05 00 00 00 01 00 00 
00 04 83 00 00 00 00 00 00 05 00 00 00 01 00 00 
00 04 aa 00 00 00 00 00 00 05 00 00 00 01 00 00 
00 04 a3 00 00 00 00 00 00 05 00 00 00 01 00 00 
00 04 df 00 00 00 00 00 00 05 00 00 00 01 00 00 
00 04 b4 00 00 00 00 00 00 05 00 00 00 01 00 00 
00 04 b2 00 00 00 00 00 00 05 00 00 00 01 00 00 
00 04 ce 00 00 00 00 00 00 05 00 00 00 01 00 00 
00 04 40 00 00 00 00 00 00 05 00 00 00 01 00 00 
00 04 36 00 00 00 00 00 00 05 00 00 00 01 00 00 
00 04 2f 00 00 00 00 00 00 05 00 00 00 01 00 00 
00 04 66 00 00 00 00 00 00 05 00 00 00 01 00 00 
00 04 8e 00 00 00 00 00 00 05 00 00 00 01 00 00 
00 04 b2 00 00 00 00 00 00 05 00 00 00 01 00 00 
00 04 b8 00 00 00 00 00 00 05 00 00 00 01 00 00 
00 04 d2 00 00 00 00 00 00 05 00 00 00 01 00 00 
00 04 c9 00 00 00 00 00 00 05 00 00 00 01 00 00 
00 04 6a 00 00 00 00 00 00 05 00 00 00 01 00 00 
00 04 d8 00 00 00 00 00 00 05 00 00 00 01 00 00 
00 04 88 00 00 00 00 00 00 05 00 00 00 01 00 00 
00 05 09 00 00 00 00 00 00 05 00 00 00 01 00 00 
00 04 a7 00 00 00 00 00 00 05 00 00 00 01 00 00 
00 04 8c 00 00 00 00 00 00 05 00 00 00 01 00 00 
00 04 bd 00 00 00 00 00 00 05 00 00 00 01 00 00 
00 04 ae 00 00 00 00 00 00 05 00 00 00 01 00 00 
00 04 f6 00 00 00 00 00 00 05 00 00 00 01 00 00 
00 04 9b 00 00 00 00 00 00 05 00 00 00 01 00 00 
00 04 a5 00 00 00 00 00 00 05 00 00 00 01 00 00 
00 04 b8 00 00 00 00 00 00 05 00 00 00 01 00 00 
00 04 b8 00 00 00 00 00 00 05 00 00 00 01 00 00 
00 04 8a 00 00 00 00 00 00 05 00 00 00 01 00 00 
00 04 9d 00 00 00 00 00 00 05 00 00 00 01 00 00 
00 04 74 00 00 00 00 00 00 05 00 00 00 01 00 00 
00 04 21 00 00 00 00 00 00 05 00 00 00 01 00 00 
00 04 8e 00 00 00 00 00 00 05 00 00 00 01 00 00 
00 04 4a 00 00 00 00 00 00 05 00 00 00 01 00 00 
00 04 16 00 00 00 00 00 00 05 00 00 00 01 00 00 
00 04 5b 00 00 00 00 00 00 05 00 00 00 01 00 00 
00 04 2f 00 00 00 00 00 00 05 00 00 00 01 00 00 
00 04 5b 00 00 00 00 00 00 05 00 00 00 01 00 00 
00 04 d8 00 00 00 00 00 00 05 00 00 00 01 00 00 
00 04 cc 00 00 00 00 00 00 05 00 00 00 01 00 00 
00 04 8c 00 00 00 00 00 00 05 00 00 00 01 00 00 
00 04 a1 00 00 00 00 00 00 05 00 00 00 01 00 00 
00 04 c7 00 00 00 00 00 00 05 00 00 00 01 00 00 
00 04 8c 00 00 00 00 00 00 05 00 00 00 01 00 00 
00 04 e9 00 00 00 00 00 00 05 00 00 00 01 00 00 
00 04 aa 00 00 00 00 00 00 05 00 00 00 01 00 00 
00 04 81 00 00 00 00 00 00 05 00 00 00 01 00 00 
00 04 b8 00 00 00 00 00 00 05 00 00 00 01 00 00 
00 04 61 00 00 00 00 00 00 05 00 00 00 01 00 00 
00 04 14 00 00 00 00 00 00 05 00 00 00 01 00 00 
00 03 f8 00 00 00 00 00 00 05 00 00 00 01 00 00 
00 03 f8 00 00 00 00 00 00 05 00 00 00 01 00 00 
00 03 ee 00 00 00 00 00 00 05 00 00 00 01 00 00 
00 04 2b 00 00 00 00 00 00 05 00 00 00 01 00 00 
00 04 46 00 00 00 00 00 00 05 00 00 00 01 00 00 
00 04 8c 00 00 00 00 00 00 05 00 00 00 01 00 00 
00 04 b2 00 00 00 00 00 00 05 00 00 00 01 00 00 
00 04 9f 00 00 00 00 00 00 05 00 00 00 01 00 00 
00 04 68 00 00 00 00 00 00 05 00 00 00 01 00 00 
00 04 6a 00 00 00 00 00 00 05 00 00 00 01 00 00 
00 04 ff 00 00 00 00 00 00 05 00 00 00 01 00 00 
00 04 a1 00 00 00 00 00 00 05 00 00 00 01 00 00 
00 04 66 00 00 00 00 00 00 05 00 00 00 01 00 00 
00 04 9d 00 00 00 00 00 00 05 00 00 00 01 00 00 
00 04 ce 00 00 00 00 00 00 05 00 00 00 01 00 00 
00 04 c9 00 00 00 00 00 00 05 00 00 00 01 00 00 
00 04 ac 00 00 00 00 00 00 05 00 00 00 01 00 00 
00 04 85 00 00 00 00 00 00 05 00 00 00 01 00 00 
00 04 7b 00 00 00 00 00 00 05 00 00 00 01 00 00 
00 04 83 00 00 00 00 00 00 05 00 00 00 01 00 00 
00 04 c7 00 00 00 00 00 00 05 00 00 00 01 00 00 
00 04 f4 00 00 00 00 00 00 05 00 00 00 01 00 00 
00 04 8a 00 00 00 00 00 00 05 00 00 00 01 00 00 
00 04 96 00 00 00 00 00 00 05 00 00 00 01 00 00 
00 04 8c 00 00 00 00 00 00 05 00 00 00 01 00 00 
00 04 59 00 00 00 00 00 00 05 00 00 00 01 00 00 
00 04 5f 00 00 00 00 00 00 05 00 00 00 01 00 00 
00 04 6a 00 00 00 00 00 00 05 00 00 00 01 00 00 
00 04 4a 00 00 00 00 00 00 05 00 00 00 01 00 00 
00 04 40 00 00 00 00 00 00 05 00 00 00 01 00 00 
00 04 b2 00 00 00 00 00 00 05 00 00 00 01 00 00 
00 04 85 00 00 00 00 00 00 05 00 00 00 01 00 00 
00 04 2b 00 00 00 00 00 00 05 00 00 00 01 00 00 
00 04 79 00 00 00 00 00 00 05 00 00 00 01 00 00 
00 04 b8 00 00 00 00 00 00 05 00 00 00 01 00 00 
00 04 8e 00 00 00 00 00 00 05 00 00 00 01 00 00 
00 04 74 00 00 00 00 00 00 05 00 00 00 01 00 00 
00 04 61 00 00 00 00 00 00 05 00 00 00 01 00 00 
00 04 b2 00 00 00 00 00 00 05 00 00 00 01 00 00 
00 05 27 00 00 00 00 00 00 05 00 00 00 01 00 00 
00 05 21 00 00 00 00 00 00 05 00 00 00 01 00 00 
00 04 99 00 00 00 00 00 00 05 00 00 00 01 00 00 
00 04 b6 00 00 00 00 00 00 05 00 00 00 01 00 00 
00 04 a1 00 00 00 00 00 00 05 00 00 00 01 00 00 
00 04 c5 00 00 00 00 00 00 05 00 00 00 01 00 00 
00 04 b0 00 00 00 00 00 00 05 00 00 00 01 00 00 
00 04 6c 00 00 00 00 00 00 05 00 00 00 01 00 00 
00 04 8a 00 00 00 00 00 00 05 00 00 00 01 00 00 
00 04 99 00 00 00 00 00 00 05 00 00 00 01 00 00 
00 04 bb 00 00 00 00 00 00 05 00 00 00 01 00 00 
00 04 7b 00 00 00 00 00 00 05 00 00 00 01 00 00 
00 04 83 00 00 00 00 00 00 05 00 00 00 01 00 00 
00 04 dd 00 00 00 00 00 00 05 00 00 00 01 00 00 
00 04 d2 00 00 00 00 00 00 05 00 00 00 01 00 00 
00 04 c9 00 00 00 00 00 00 05 00 00 00 01 00 00 
00 04 ae 00 00 00 00 00 00 05 00 00 00 01 00 00 
00 04 c3 00 00 00 00 00 00 05 00 00 00 01 00 00 
00 04 b0 00 00 00 00 00 00 05 00 00 00 01 00 00 
00 04 8e 00 00 00 00 00 00 05 00 00 00 01 00 00 
00 04 8e 00 00 00 00 00 00 05 00 00 00 01 00 00 
00 04 9b 00 00 00 00 00 00 05 00 00 00 01 00 00 
00 04 59 00 00 00 00 00 00 05 00 00 00 01 00 00 
00 04 c5 00 00 00 00 00 00 05 00 00 00 01 00 00 
00 05 03 00 00 00 00 00 00 05 00 00 00 01 00 00 
00 04 83 00 00 00 00 00 00 05 00 00 00 01 00 00 
00 04 4e 00 00 00 00 00 00 05 00 00 00 01 00 00 
00 04 c5 00 00 00 00 00 00 05 00 00 00 01 00 00 
00 04 d4 00 00 00 00 00 00 05 00 00 00 01 00 00 
00 04 dd 00 00 00 00 00 00 05 00 00 00 01 00 00 
00 04 c3 00 00 00 00 00 00 05 00 00 00 01 00 00 
00 04 ce 00 00 00 00 00 00 05 00 00 00 01 00 00 
00 04 7b 00 00 00 00 00 00 05 00 00 00 01 00 00 
00 04 70 00 00 00 00 00 00 05 00 00 00 01 00 00 
00 04 a3 00 00 00 00 00 00 05 00 00 00 01 00 00 
00 04 9f 00 00 00 00 00 00 05 00 00 00 01 00 00 
00 04 7d 00 00 00 00 00 00 05 00 00 00 01 00 00 
00 04 bf 00 00 00 00 00 00 05 00 00 00 01 00 00 
00 04 c9 00 00 00 00 00 00 05 00 00 00 01 00 00 
00 04 57 00 00 00 00 00 00 05 00 00 00 01 00 00 
00 04 66 00 00 00 00 00 00 05 00 00 00 01 00 00 
00 04 74 00 00 00 00 00 00 05 00 00 00 01 00 00 
00 04 5f 00 00 00 00 00 00 05 00 00 00 01 00 00 
00 04 a5 00 00 00 00 00 00 05 00 00 00 01 00 00 
00 04 d2 00 00 00 00 00 00 05 00 00 00 01 00 00 
00 04 bd 00 00 00 00 00 00 05 00 00 00 01 00 00 
00 04 81 00 00 00 00 00 00 05 00 00 00 01 00 00 
00 04 c7 00 00 00 00 00 00 05 00 00 00 01 00 00 
00 04 9b 00 00 00 00 00 00 05 00 00 00 01 00 00 
00 04 d8 00 00 00 00 00 00 05 00 00 00 01 00 00 
00 04 7d 00 00 00 00 00 00 05 00 00 00 01 00 00 
00 04 61 00 00 00 00 00 00 05 00 00 00 01 00 00 
00 04 85 00 00 00 00 00 00 05 00 00 00 01 00 00 
00 04 dd 00 00 00 00 00 00 05 00 00 00 01 00 00 
00 04 83 00 00 00 00 00 00 05 00 00 00 01 00 00 
00 04 3c 00 00 00 00 00 00 05 00 00 00 01 00 00 
00 04 99 00 00 00 00 00 00 05 00 00 00 01 00 00 
00 04 b4 00 00 00 00 00 00 05 00 00 00 01 00 00 
00 04 c1 00 00 00 00 00 00 05 00 00 00 01 00 00 
00 04 e1 00 00 00 00 00 00 05 00 00 00 01 00 00 
00 04 8e 00 00 00 00 00 00 05 00 00 00 01 00 00 
00 04 b6 00 00 00 00 00 00 05 00 00 00 01 00 00 
00 04 18 00 00 00 00 00 00 05 00 00 00 01 00 00 
00 04 d6 00 00 00 00 00 00 05 00 00 00 01 00 00 
00 04 d0 00 00 00 00 00 00 05 00 00 00 01 00 00 
00 04 c1 00 00 00 00 00 00 05 00 00 00 01 00 00 
00 04 a5 00 00 00 00 00 00 05 00 00 00 01 00 00 
00 04 d2 00 00 00 00 00 00 05 00 00 00 01 00 00 
00 04 ac 00 00 00 00 00 00 05 00 00 00 01 00 00 
00 04 7b 00 00 00 00 00 00 05 00 00 00 01 00 00 
00 04 e1 00 00 00 00 00 00 05 00 00 00 01 00 00 
00 04 b2 00 00 00 00 00 00 05 00 00 00 01 00 00 
00 04 59 00 00 00 00 00 00 05 00 00 00 01 00 00 
00 04 85 00 00 00 00 00 00 05 00 00 00 01 00 00 
00 04 ce 00 00 00 00 00 00 05 00 00 00 01 00 00 
00 04 bf 00 00 00 00 00 00 05 00 00 00 01 00 00 
00 04 d2 00 00 00 00 00 00 05 00 00 00 01 00 00 
00 04 c3 00 00 00 00 00 00 05 00 00 00 01 00 00 
00 04 d6 00 00 00 00 00 00 05 00 00 00 01 00 00 
00 04 ac 00 00 00 00 00 00 05 00 00 00 01 00 00 
00 04 c7 00 00 00 00 00 00 05 00 00 00 01 00 00 
00 04 68 00 00 00 00 00 00 05 00 00 00 01 00 00 
00 04 70 00 00 00 00 00 00 05 00 00 00 01 00 00 
00 04 5d 00 00 00 00 00 00 05 00 00 00 01 00 00 
00 04 81 00 00 00 00 00 00 05 00 00 00 01 00 00 
00 04 55 00 00 00 00 00 00 05 00 00 00 01 00 00 
00 04 6c 00 00 00 00 00 00 05 00 00 00 01 00 00 
00 04 ac 00 00 00 00 00 00 05 00 00 00 01 00 00 
00 04 bb 00 00 00 00 00 00 05 00 00 00 01 00 00 
00 04 b8 00 00 00 00 00 00 05 00 00 00 01 00 00 
00 05 05 00 00 00 00 00 00 05 00 00 00 01 00 00 
00 04 b2 00 00 00 00 00 00 05 00 00 00 01 00 00 
00 04 9f 00 00 00 00 00 00 05 00 00 00 01 00 00 
00 04 b2 00 00 00 00 00 00 05 00 00 00 01 00 00 
00 04 99 00 00 00 00 00 00 05 00 00 00 01 00 00 
00 04 d4 00 00 00 00 00 00 05 00 00 00 01 00 00 
00 04 ae 00 00 00 00 00 00 05 00 00 00 01 00 00 
00 04 b8 00 00 00 00 00 00 05 00 00 00 01 00 00 
00 04 a7 00 00 00 00 00 00 05 00 00 00 01 00 00 
00 05 01 00 00 00 00 00 00 05 00 00 00 01 00 00 
00 04 9b 00 00 00 00 00 00 05 00 00 00 01 00 00 
00 04 e7 00 00 00 00 00 00 05 00 00 00 01 00 00 
00 04 9d 00 00 00 00 00 00 05 00 00 00 01 00 00 
00 05 05 00 00 00 00 00 00 05 00 00 00 01 00 00 
00 04 8c 00 00 00 00 00 00 05 00 00 00 01 00 00 
00 04 90 00 00 00 00 00 00 05 00 00 00 01 00 00 
00 04 ff 00 00 00 00 00 00 05 00 00 00 01 00 00 
00 04 b0 00 00 00 00 00 00 05 00 00 00 01 00 00 
00 04 85 00 00 00 00 00 00 05 00 00 00 01 00 00 
00 04 ce 00 00 00 00 00 00 05 00 00 00 01 00 00 
00 04 99 00 00 00 00 00 00 05 00 00 00 01 00 00 
00 04 d4 00 00 00 00 00 00 05 00 00 00 01 00 00 
00 04 bd 00 00 00 00 00 00 05 00 00 00 01 00 00 
00 04 c5 00 00 00 00 00 00 05 00 00 00 01 00 00 
00 05 10 00 00 00 00 00 00 05 00 00 00 01 00 00 
00 04 b6 00 00 00 00 00 00 05 00 00 00 01 00 00 
00 04 bf 00 00 00 00 00 00 05 00 00 00 01 00 00 
00 05 05 00 00 00 00 00 00 05 00 00 00 01 00 00 
00 05 05 00 00 00 00 00 00 05 00 00 00 01 00 00 
00 04 a3 00 00 00 00 00 00 05 00 00 00 01 00 00 
00 04 74 00 00 00 00 00 00 05 00 00 00 01 00 00 
00 04 e7 00 00 00 00 00 00 05 00 00 00 01 00 00 
00 04 92 00 00 00 00 00 00 05 00 00 00 01 00 00 
00 04 4a 00 00 00 00 00 00 05 00 00 00 01 00 00 
00 04 8e 00 00 00 00 00 00 05 00 00 00 01 00 00 
00 04 df 00 00 00 00 00 00 05 00 00 00 01 00 00 
00 04 b4 00 00 00 00 00 00 05 00 00 00 01 00 00 
00 04 9d 00 00 00 00 00 00 05 00 00 00 01 00 00 
00 04 9f 00 00 00 00 00 00 05 00 00 00 01 00 00 
00 04 c7 00 00 00 00 00 00 05 00 00 00 01 00 00 
00 04 d6 00 00 00 00 00 00 05 00 00 00 01 00 00 
00 04 bf 00 00 00 00 00 00 05 00 00 00 01 00 00 
00 05 05 00 00 00 00 00 00 05 00 00 00 01 00 00 
00 04 ae 00 00 00 00 00 00 05 00 00 00 01 00 00 
00 04 ac 00 00 00 00 00 00 05 00 00 00 01 00 00 
00 04 61 00 00 00 00 00 00 05 00 00 00 01 00 00 
00 04 74 00 00 00 00 00 00 05 00 00 00 01 00 00 
00 04 bd 00 00 00 00 00 00 05 00 00 00 01 00 00 
00 04 ee 00 00 00 00 00 00 05 00 00 00 01 00 00 
00 04 da 00 00 00 00 00 00 05 00 00 00 01 00 00 
00 04 b4 00 00 00 00 00 00 05 00 00 00 01 00 00 
00 04 bb 00 00 00 00 00 00 05 00 00 00 01 00 00 
00 04 d4 00 00 00 00 00 00 05 00 00 00 01 00 00 
00 04 66 00 00 00 00 00 00 05 00 00 00 01 00 00 
00 04 68 00 00 00 00 00 00 05 00 00 00 01 00 00 
00 04 9f 00 00 00 00 00 00 05 00 00 00 01 00 00 
00 04 ac 00 00 00 00 00 00 05 00 00 00 01 00 00 
00 04 68 00 00 00 00 00 00 05 00 00 00 01 00 00 
00 04 90 00 00 00 00 00 00 05 00 00 00 01 00 00 
00 04 7f 00 00 00 00 00 00 05 00 00 00 01 00 00 
00 04 7b 00 00 00 00 00 00 05 00 00 00 01 00 00 
00 04 8c 00 00 00 00 00 00 05 00 00 00 01 00 00 
00 04 66 00 00 00 00 00 00 05 00 00 00 01 00 00 
00 04 b6 00 00 00 00 00 00 05 00 00 00 01 00 00 
00 04 88 00 00 00 00 00 00 05 00 00 00 01 00 00 
00 04 7f 00 00 00 00 00 00 05 00 00 00 01 00 00 
00 04 df 00 00 00 00 00 00 05 00 00 00 01 00 00 
00 04 a1 00 00 00 00 00 00 05 00 00 00 01 00 00 
00 04 9f 00 00 00 00 00 00 05 00 00 00 01 00 00 
00 04 99 00 00 00 00 00 00 05 00 00 00 01 00 00 
00 04 da 00 00 00 00 00 00 05 00 00 00 01 00 00 
00 04 dd 00 00 00 00 00 00 05 00 00 00 01 00 00 
00 04 bd 00 00 00 00 00 00 05 00 00 00 01 00 00 
00 05 21 00 00 00 00 00 00 05 00 00 00 01 00 00 
00 04 eb 00 00 00 00 00 00 05 00 00 00 01 00 00 
00 05 03 00 00 00 00 00 00 05 00 00 00 01 00 00 
00 05 01 00 00 00 00 00 00 05 00 00 00 01 00 00 
00 04 ac 00 00 00 00 00 00 05 00 00 00 01 00 00 
00 04 d2 00 00 00 00 00 00 05 00 00 00 01 00 00 
00 04 da 00 00 00 00 00 00 05 00 00 00 01 00 00 
00 04 0d 00 00 00 00 00 00 05 00 00 00 01 00 00 
00 04 68 00 00 00 00 00 00 05 00 00 00 01 00 00 
00 04 bf 00 00 00 00 00 00 05 00 00 00 01 00 00 
00 04 90 00 00 00 00 00 00 05 00 00 00 01 00 00 
00 04 d2 00 00 00 00 00 00 05 00 00 00 01 00 00 
00 04 4e 00 00 00 00 00 00 05 00 00 00 01 00 00 
00 04 6c 00 00 00 00 00 00 05 00 00 00 01 00 00 
00 04 92 00 00 00 00 00 00 05 00 00 00 01 00 00 
00 04 ff 00 00 00 00 00 00 05 00 00 00 01 00 00 
00 04 8e 00 00 00 00 00 00 05 00 00 00 01 00 00 
00 04 bb 00 00 00 00 00 00 05 00 00 00 01 00 00 
00 04 da 00 00 00 00 00 00 05 00 00 00 01 00 00 
00 04 ae 00 00 00 00 00 00 05 00 00 00 01 00 00 
00 04 d6 00 00 00 00 00 00 05 00 00 00 01 00 00 
00 04 b4 00 00 00 00 00 00 05 00 00 00 01 00 00 
00 04 c7 00 00 00 00 00 00 05 00 00 00 01 00 00 
00 04 c1 00 00 00 00 00 00 05 00 00 00 01 00 00 
00 04 52 00 00 00 00 00 00 05 00 00 00 01 00 00 
00 04 7b 00 00 00 00 00 00 05 00 00 00 01 00 00 
00 04 74 00 00 00 00 00 00 05 00 00 00 01 00 00 
00 04 52 00 00 00 00 00 00 05 00 00 00 01 00 00 
00 04 5f 00 00 00 00 00 00 05 00 00 00 01 00 00 
00 04 50 00 00 00 00 00 00 05 00 00 00 01 00 00 
00 04 d8 00 00 00 00 00 00 05 00 00 00 01 00 00 
00 04 ae 00 00 00 00 00 00 05 00 00 00 01 00 00 
00 04 85 00 00 00 00 00 00 05 00 00 00 01 00 00 
00 04 b8 00 00 00 00 00 00 05 00 00 00 01 00 00 
00 04 96 00 00 00 00 00 00 05 00 00 00 01 00 00 
00 04 d8 00 00 00 00 00 00 05 00 00 00 01 00 00 
00 04 d2 00 00 00 00 00 00 05 00 00 00 01 00 00 
00 04 b4 00 00 00 00 00 00 05 00 00 00 01 00 00 
00 04 d4 00 00 00 00 00 00 05 00 00 00 01 00 00 
00 04 7d 00 00 00 00 00 00 05 00 00 00 01 00 00 
00 04 c9 00 00 00 00 00 00 05 00 00 00 01 00 00 
00 04 7d 00 00 00 00 00 00 05 00 00 00 01 00 00 
00 04 a7 00 00 00 00 00 00 05 00 00 00 01 00 00 
00 04 66 00 00 00 00 00 00 05 00 00 00 01 00 00 
00 04 bd 00 00 00 00 00 00 05 00 00 00 01 00 00 
00 04 ee 00 00 00 00 00 00 05 00 00 00 01 00 00 
00 04 eb 00 00 00 00 00 00 05 00 00 00 01 00 00 
00 04 d4 00 00 00 00 00 00 05 00 00 00 01 00 00 
00 04 d4 00 00 00 00 00 00 05 00 00 00 01 00 00 
00 04 90 00 00 00 00 00 00 05 00 00 00 01 00 00 
00 05 23 00 00 00 00 00 00 05 00 00 00 01 00 00 
00 05 0b 00 00 00 00 00 00 05 00 00 00 01 00 00 
00 04 b8 00 00 00 00 00 00 05 00 00 00 01 00 00 
00 05 1e 00 00 00 00 00 00 05 00 00 00 01 00 00 
00 04 c7 00 00 00 00 00 00 05 00 00 00 01 00 00 
00 04 ee 00 00 00 00 00 00 05 00 00 00 01 00 00 
00 04 96 00 00 00 00 00 00 05 00 00 00 01 00 00 
00 04 d6 00 00 00 00 00 00 05 00 00 00 01 00 00 
00 04 f6 00 00 00 00 00 00 05 00 00 00 01 00 00 
00 04 d2 00 00 00 00 00 00 05 00 00 00 01 00 00 
00 05 05 00 00 00 00 00 00 05 00 00 00 01 00 00 
00 04 c3 00 00 00 00 00 00 05 00 00 00 01 00 00 
00 04 b2 00 00 00 00 00 00 05 00 00 00 01 00 00 
00 04 a7 00 00 00 00 00 00 05 00 00 00 01 00 00 
00 04 c1 00 00 00 00 00 00 05 00 00 00 01 00 00 
00 04 a1 00 00 00 00 00 00 05 00 00 00 01 00 00 
00 04 aa 00 00 00 00 00 00 05 00 00 00 01 00 00 
00 04 85 00 00 00 00 00 00 05 00 00 00 01 00 00 
00 04 6a 00 00 00 00 00 00 05 00 00 00 01 00 00 
00 04 83 00 00 00 00 00 00 05 00 00 00 01 00 00 
00 04 38 00 00 00 00 00 00 05 00 00 00 01 00 00 
00 04 8c 00 00 00 00 00 00 05 00 00 00 01 00 00 
00 04 92 00 00 00 00 00 00 05 00 00 00 01 00 00 
00 04 83 00 00 00 00 00 00 05 00 00 00 01 00 00 
00 04 9b 00 00 00 00 00 00 05 00 00 00 01 00 00 
00 04 92 00 00 00 00 00 00 05 00 00 00 01 00 00 
00 04 8e 00 00 00 00 00 00 05 00 00 00 01 00 00 
00 04 32 00 00 00 00 00 00 05 00 00 00 01 00 00 
00 04 81 00 00 00 00 00 00 05 00 00 00 01 00 00 
00 04 9d 00 00 00 00 00 00 05 00 00 00 01 00 00 
00 04 b0 00 00 00 00 00 00 05 00 00 00 01 00 00 
00 04 9d 00 00 00 00 00 00 05 00 00 00 01 00 00 
00 04 d2 00 00 00 00 00 00 05 00 00 00 01 00 00 
00 04 40 00 00 00 00 00 00 05 00 00 00 01 00 00 
00 04 5d 00 00 00 00 00 00 05 00 00 00 01 00 00 
00 04 77 00 00 00 00 00 00 05 00 00 00 01 00 00 
00 04 66 00 00 00 00 00 00 05 00 00 00 01 00 00 
00 04 5b 00 00 00 00 00 00 05 00 00 00 01 00 00 
00 04 79 00 00 00 00 00 00 05 00 00 00 01 00 00 
00 04 b2 00 00 00 00 00 00 05 00 00 00 01 00 00 
00 04 7b 00 00 00 00 00 00 05 00 00 00 01 00 00 
00 04 8a 00 00 00 00 00 00 05 00 00 00 01 00 00 
00 04 8e 00 00 00 00 00 00 05 00 00 00 01 00 00 
00 04 6c 00 00 00 00 00 00 05 00 00 00 01 00 00 
00 04 99 00 00 00 00 00 00 05 00 00 00 01 00 00 
00 04 cc 00 00 00 00 00 00 05 00 00 00 01 00 00 
00 04 94 00 00 00 00 00 00 05 00 00 00 01 00 00 
00 04 bd 00 00 00 00 00 00 05 00 00 00 01 00 00 
00 04 f8 00 00 00 00 00 00 05 00 00 00 01 00 00 
00 04 9f 00 00 00 00 00 00 05 00 00 00 01 00 00 
00 04 6c 00 00 00 00 00 00 05 00 00 00 01 00 00 
00 04 7d 00 00 00 00 00 00 05 00 00 00 01 00 00 
00 04 81 00 00 00 00 00 00 05 00 00 00 01 00 00 
00 04 4c 00 00 00 00 00 00 05 00 00 00 01 00 00 
00 04 96 00 00 00 00 00 00 05 00 00 00 01 00 00 
00 04 ae 00 00 00 00 00 00 05 00 00 00 01 00 00 
00 04 59 00 00 00 00 00 00 05 00 00 00 01 00 00 
00 04 b2 00 00 00 00 00 00 05 00 00 00 01 00 00 
00 04 59 00 00 00 00 00 00 05 00 00 00 01 00 00 
00 05 01 00 00 00 00 00 00 05 00 00 00 01 00 00 
00 04 ac 00 00 00 00 00 00 05 00 00 00 01 00 00 
00 04 b2 00 00 00 00 00 00 05 00 00 00 01 00 00 
00 04 bd 00 00 00 00 00 00 05 00 00 00 01 00 00 
00 04 ee 00 00 00 00 00 00 05 00 00 00 01 00 00 
00 04 a3 00 00 00 00 00 00 05 00 00 00 01 00 00 
00 04 9b 00 00 00 00 00 00 05 00 00 00 01 00 00 
00 04 6e 00 00 00 00 00 00 05 00 00 00 01 00 00 
00 04 ae 00 00 00 00 00 00 05 00 00 00 01 00 00 
00 04 d0 00 00 00 00 00 00 05 00 00 00 01 00 00 
00 04 b6 00 00 00 00 00 00 05 00 00 00 01 00 00 
00 04 b0 00 00 00 00 00 00 05 00 00 00 01 00 00 
00 05 09 00 00 00 00 00 00 05 00 00 00 01 00 00 
00 05 23 00 00 00 00 00 00 05 00 00 00 01 00 00 
00 05 29 00 00 00 00 00 00 05 00 00 00 01 00 00 
00 04 da 00 00 00 00 00 00 05 00 00 00 01 00 00 
00 04 d0 00 00 00 00 00 00 05 00 00 00 01 00 00 
00 04 92 00 00 00 00 00 00 05 00 00 00 01 00 00 
00 04 90 00 00 00 00 00 00 05 00 00 00 01 00 00 
00 04 e9 00 00 00 00 00 00 05 00 00 00 01 00 00 
00 04 88 00 00 00 00 00 00 05 00 00 00 01 00 00 
00 04 a7 00 00 00 00 00 00 05 00 00 00 01 00 00 
00 04 b6 00 00 00 00 00 00 05 00 00 00 01 00 00 
00 04 e1 00 00 00 00 00 00 05 00 00 00 01 00 00 
00 05 27 00 00 00 00 00 00 05 00 00 00 01 00 00 
00 04 52 00 00 00 00 00 00 05 00 00 00 01 00 00 
00 04 da 00 00 00 00 00 00 05 00 00 00 01 00 00 
00 04 b4 00 00 00 00 00 00 05 00 00 00 01 00 00 
00 04 8c 00 00 00 00 00 00 05 00 00 00 01 00 00 
00 04 a3 00 00 00 00 00 00 05 00 00 00 01 00 00 
00 04 bd 00 00 00 00 00 00 05 00 00 00 01 00 00 
00 04 bd 00 00 00 00 00 00 05 00 00 00 01 00 00 
00 04 50 00 00 00 00 00 00 05 00 00 00 01 00 00 
00 04 88 00 00 00 00 00 00 05 00 00 00 01 00 00 
00 04 2d 00 00 00 00 00 00 05 00 00 00 01 00 00 
00 04 2d 00 00 00 00 00 00 05 00 00 00 01 00 00 
00 04 85 00 00 00 00 00 00 05 00 00 00 01 00 00 
00 04 25 00 00 00 00 00 00 05 00 00 00 01 00 00 
00 04 b4 00 00 00 00 00 00 05 00 00 00 01 00 00 
00 04 44 00 00 00 00 00 00 05 00 00 00 01 00 00 
00 04 77 00 00 00 00 00 00 05 00 00 00 01 00 00 
00 04 5d 00 00 00 00 00 00 05 00 00 00 01 00 00 
00 04 d6 00 00 00 00 00 00 05 00 00 00 01 00 00 
00 05 01 00 00 00 00 00 00 05 00 00 00 01 00 00 
00 04 da 00 00 00 00 00 00 05 00 00 00 01 00 00 
00 04 ee 00 00 00 00 00 00 05 00 00 00 01 00 00 
00 04 d4 00 00 00 00 00 00 05 00 00 00 01 00 00 
00 04 cc 00 00 00 00 00 00 05 00 00 00 01 00 00 
00 04 eb 00 00 00 00 00 00 05 00 00 00 01 00 00 
00 04 c9 00 00 00 00 00 00 05 00 00 00 01 00 00 
00 04 ac 00 00 00 00 00 00 05 00 00 00 01 00 00 
00 04 b2 00 00 00 00 00 00 05 00 00 00 01 00 00 
00 04 72 00 00 00 00 00 00 05 00 00 00 01 00 00 
00 04 b4 00 00 00 00 00 00 05 00 00 00 01 00 00 
00 04 a5 00 00 00 00 00 00 05 00 00 00 01 00 00 
00 04 ce 00 00 00 00 00 00 05 00 00 00 01 00 00 
00 04 a3 00 00 00 00 00 00 05 00 00 00 01 00 00 
00 04 bd 00 00 00 00 00 00 05 00 00 00 01 00 00 
00 04 09 00 00 00 00 00 00 05 00 00 00 01 00 00 
00 04 3e 00 00 00 00 00 00 05 00 00 00 01 00 00 
00 04 a7 00 00 00 00 00 00 05 00 00 00 01 00 00 
00 04 c3 00 00 00 00 00 00 05 00 00 00 01 00 00 
00 04 94 00 00 00 00 00 00 05 00 00 00 01 00 00 
00 04 7f 00 00 00 00 00 00 05 00 00 00 01 00 00 
00 04 d8 00 00 00 00 00 00 05 00 00 00 01 00 00 
00 05 0b 00 00 00 00 00 00 05 00 00 00 01 00 00 
00 04 c7 00 00 00 00 00 00 05 00 00 00 01 00 00 
00 05 07 00 00 00 00 00 00 05 00 00 00 01 00 00 
00 04 d4 00 00 00 00 00 00 05 00 00 00 01 00 00 
00 04 e5 00 00 00 00 00 00 05 00 00 00 01 00 00 
00 04 c7 00 00 00 00 00 00 05 00 00 00 01 00 00 
00 04 ae 00 00 00 00 00 00 05 00 00 00 01 00 00 
00 04 72 00 00 00 00 00 00 05 00 00 00 01 00 00 
00 04 c7 00 00 00 00 00 00 05 00 00 00 01 00 00 
00 04 52 00 00 00 00 00 00 05 00 00 00 01 00 00 
00 04 5f 00 00 00 00 00 00 05 00 00 00 01 00 00 
00 04 f8 00 00 00 00 00 00 05 00 00 00 01 00 00 
00 04 b8 00 00 00 00 00 00 05 00 00 00 01 00 00 
00 04 a5 00 00 00 00 00 00 05 00 00 00 01 00 00 
00 04 83 00 00 00 00 00 00 05 00 00 00 01 00 00 
00 05 0d 00 00 00 00 00 00 05 00 00 00 01 00 00 
00 04 a7 00 00 00 00 00 00 05 00 00 00 01 00 00 
00 04 90 00 00 00 00 00 00 05 00 00 00 01 00 00 
00 04 a3 00 00 00 00 00 00 05 00 00 00 01 00 00 
00 04 99 00 00 00 00 00 00 05 00 00 00 01 00 00 
00 04 8e 00 00 00 00 00 00 05 00 00 00 01 00 00 
00 04 d2 00 00 00 00 00 00 05 00 00 00 01 00 00 
00 04 5b 00 00 00 00 00 00 05 00 00 00 01 00 00 
00 04 e9 00 00 00 00 00 00 05 00 00 00 01 00 00 
00 04 fc 00 00 00 00 00 00 05 00 00 00 01 00 00 
00 05 29 00 00 00 00 00 00 05 00 00 00 01 00 00 
00 05 07 00 00 00 00 00 00 05 00 00 00 01 00 00 
00 04 dd 00 00 00 00 00 00 05 00 00 00 01 00 00 
00 05 1a 00 00 00 00 00 00 05 00 00 00 01 00 00 
00 04 90 00 00 00 00 00 00 05 00 00 00 01 00 00 
00 04 d4 00 00 00 00 00 00 05 00 00 00 01 00 00 
00 04 aa 00 00 00 00 00 00 05 00 00 00 01 00 00 
00 04 92 00 00 00 00 00 00 05 00 00 00 01 00 00 
00 04 c1 00 00 00 00 00 00 05 00 00 00 01 00 00 
00 04 c1 00 00 00 00 00 00 05 00 00 00 01 00 00 
00 04 dd 00 00 00 00 00 00 05 00 00 00 01 00 00 
00 04 bd 00 00 00 00 00 00 05 00 00 00 01 00 00 
00 04 7b 00 00 00 00 00 00 05 00 00 00 01 00 00 
00 04 66 00 00 00 00 00 00 05 00 00 00 01 00 00 
00 04 7d 00 00 00 00 00 00 05 00 00 00 01 00 00 
00 04 8a 00 00 00 00 00 00 05 00 00 00 01 00 00 
00 04 bd 00 00 00 00 00 00 05 00 00 00 01 00 00 
00 04 c9 00 00 00 00 00 00 05 00 00 00 01 00 00 
00 04 aa 00 00 00 00 00 00 05 00 00 00 01 00 00 
00 04 aa 00 00 00 00 00 00 05 00 00 00 01 00 00 
00 04 6c 00 00 00 00 00 00 05 00 00 00 01 00 00 
00 04 2b 00 00 00 00 00 00 05 00 00 00 01 00 00 
00 04 7f 00 00 00 00 00 00 05 00 00 00 01 00 00 
00 04 63 00 00 00 00 00 00 05 00 00 00 01 00 00 
00 04 b6 00 00 00 00 00 00 05 00 00 00 01 00 00 
00 04 9b 00 00 00 00 00 00 05 00 00 00 01 00 00 
00 04 7b 00 00 00 00 00 00 05 00 00 00 01 00 00 
00 04 99 00 00 00 00 00 00 05 00 00 00 01 00 00 
00 04 92 00 00 00 00 00 00 05 00 00 00 01 00 00 
00 05 16 00 00 00 00 00 00 05 00 00 00 01 00 00 
00 04 90 00 00 00 00 00 00 05 00 00 00 01 00 00 
00 05 21 00 00 00 00 00 00 05 00 00 00 01 00 00 
00 04 8e 00 00 00 00 00 00 05 00 00 00 01 00 00 
00 04 3a 00 00 00 00 00 00 05 00 00 00 01 00 00 
00 04 72 00 00 00 00 00 00 05 00 00 00 01 00 00 
00 04 d2 00 00 00 00 00 00 05 00 00 00 01 00 00 
00 04 96 00 00 00 00 00 00 05 00 00 00 01 00 00 
00 04 77 00 00 00 00 00 00 05 00 00 00 01 00 00 
00 04 50 00 00 00 00 00 00 05 00 00 00 01 00 00 
00 04 99 00 00 00 00 00 00 05 00 00 00 01 00 00 
00 04 bb 00 00 00 00 00 00 05 00 00 00 01 00 00 
00 04 c9 00 00 00 00 00 00 05 00 00 00 01 00 00 
00 04 e1 00 00 00 00 00 00 05 00 00 00 01 00 00 
00 05 27 00 00 00 00 00 00 05 00 00 00 01 00 00 
00 04 fc 00 00 00 00 00 00 05 00 00 00 01 00 00 
00 04 ff 00 00 00 00 00 00 05 00 00 00 01 00 00 
00 04 c7 00 00 00 00 00 00 05 00 00 00 01 00 00 
00 04 a1 00 00 00 00 00 00 05 00 00 00 01 00 00 
00 04 f0 00 00 00 00 00 00 05 00 00 00 01 00 00 
00 04 a3 00 00 00 00 00 00 05 00 00 00 01 00 00 
00 04 bd 00 00 00 00 00 00 05 00 00 00 01 00 00 
00 04 d4 00 00 00 00 00 00 05 00 00 00 01 00 00 
00 05 2f 00 00 00 00 00 00 05 00 00 00 01 00 00 
00 04 9d 00 00 00 00 00 00 05 00 00 00 01 00 00 
00 04 b6 00 00 00 00 00 00 05 00 00 00 01 00 00 
00 04 c9 00 00 00 00 00 00 05 00 00 00 01 00 00 
00 04 c9 00 00 00 00 00 00 05 00 00 00 01 00 00 
00 04 cc 00 00 00 00 00 00 05 00 00 00 01 00 00 
00 04 bd 00 00 00 00 00 00 05 00 00 00 01 00 00 
00 04 d8 00 00 00 00 00 00 05 00 00 00 01 00 00 
00 04 b0 00 00 00 00 00 00 05 00 00 00 01 00 00 
00 04 88 00 00 00 00 00 00 05 00 00 00 01 00 00 
00 04 c1 00 00 00 00 00 00 05 00 00 00 01 00 00 
00 04 e7 00 00 00 00 00 00 05 00 00 00 01 00 00 
00 05 59 00 00 00 00 00 00 05 00 00 00 01 00 00 
00 05 0d 00 00 00 00 00 00 05 00 00 00 01 00 00 
00 05 29 00 00 00 00 00 00 05 00 00 00 01 00 00 
00 04 fa 00 00 00 00 00 00 05 00 00 00 01 00 00 
00 04 cc 00 00 00 00 00 00 05 00 00 00 01 00 00 
00 04 bf 00 00 00 00 00 00 05 00 00 00 01 00 00 
00 04 fa 00 00 00 00 00 00 05 00 00 00 01 00 00 
00 05 3a 00 00 00 00 00 00 05 00 00 00 01 00 00 
00 05 25 00 00 00 00 00 00 05 00 00 00 01 00 00 
00 05 51 00 00 00 00 00 00 05 00 00 00 01 00 00 
00 05 1e 00 00 00 00 00 00 05 00 00 00 01 00 00 
00 04 fc 00 00 00 00 00 00 05 00 00 00 01 00 00 
00 04 d8 00 00 00 00 00 00 05 00 00 00 01 00 00 
00 04 f8 00 00 00 00 00 00 05 00 00 00 01 00 00 
00 04 e1 00 00 00 00 00 00 05 00 00 00 01 00 00 
00 04 c7 00 00 00 00 00 00 05 00 00 00 01 00 00 
00 04 bb 00 00 00 00 00 00 05 00 00 00 01 00 00 
00 04 d8 00 00 00 00 00 00 05 00 00 00 01 00 00 
00 04 df 00 00 00 00 00 00 05 00 00 00 01 00 00 
00 04 68 00 00 00 00 00 00 05 00 00 00 01 00 00 
00 04 7f 00 00 00 00 00 00 05 00 00 00 01 00 00 
00 04 85 00 00 00 00 00 00 05 00 00 00 01 00 00 
00 04 a3 00 00 00 00 00 00 05 00 00 00 01 00 00 
00 04 d2 00 00 00 00 00 00 05 00 00 00 01 00 00 
00 04 c7 00 00 00 00 00 00 05 00 00 00 01 00 00 
00 05 21 00 00 00 00 00 00 05 00 00 00 01 00 00 
00 05 2b 00 00 00 00 00 00 05 00 00 00 01 00 00 
00 04 e5 00 00 00 00 00 00 05 00 00 00 01 00 00 
00 04 e7 00 00 00 00 00 00 05 00 00 00 01 00 00 
00 04 99 00 00 00 00 00 00 05 00 00 00 01 00 00 
00 04 bd 00 00 00 00 00 00 05 00 00 00 01 00 00 
00 04 bd 00 00 00 00 00 00 05 00 00 00 01 00 00 
00 04 f8 00 00 00 00 00 00 05 00 00 00 01 00 00 
00 05 14 00 00 00 00 00 00 05 00 00 00 01 00 00 
00 04 e7 00 00 00 00 00 00 05 00 00 00 01 00 00 
00 04 c3 00 00 00 00 00 00 05 00 00 00 01 00 00 
00 04 df 00 00 00 00 00 00 05 00 00 00 01 00 00 
00 04 c3 00 00 00 00 00 00 05 00 00 00 01 00 00 
00 04 ee 00 00 00 00 00 00 05 00 00 00 01 00 00 
00 04 d0 00 00 00 00 00 00 05 00 00 00 01 00 00 
00 04 ac 00 00 00 00 00 00 05 00 00 00 01 00 00 
00 04 b2 00 00 00 00 00 00 05 00 00 00 01 00 00 
00 04 25 00 00 00 00 00 00 05 00 00 00 01 00 00 
00 04 27 00 00 00 00 00 00 05 00 00 00 01 00 00 
00 04 9d 00 00 00 00 00 00 05 00 00 00 01 00 00 
00 04 9f 00 00 00 00 00 00 05 00 00 00 01 00 00 
00 04 63 00 00 00 00 00 00 05 00 00 00 01 00 00 
00 04 d2 00 00 00 00 00 00 05 00 00 00 01 00 00 
00 04 e5 00 00 00 00 00 00 05 00 00 00 01 00 00 
00 04 94 00 00 00 00 00 00 05 00 00 00 01 00 00 
00 04 61 00 00 00 00 00 00 05 00 00 00 01 00 00 
00 04 c3 00 00 00 00 00 00 05 00 00 00 01 00 00 
00 05 10 00 00 00 00 00 00 05 00 00 00 01 00 00 
00 05 21 00 00 00 00 00 00 05 00 00 00 01 00 00 
00 04 df 00 00 00 00 00 00 05 00 00 00 01 00 00 
00 04 eb 00 00 00 00 00 00 05 00 00 00 01 00 00 
00 04 ff 00 00 00 00 00 00 05 00 00 00 01 00 00 
00 04 9f 00 00 00 00 00 00 05 00 00 00 01 00 00 
00 04 a3 00 00 00 00 00 00 05 00 00 00 01 00 00 
00 04 9f 00 00 00 00 00 00 05 00 00 00 01 00 00 
00 04 92 00 00 00 00 00 00 05 00 00 00 01 00 00 
00 04 b8 00 00 00 00 00 00 05 00 00 00 01 00 00 
00 04 d8 00 00 00 00 00 00 05 00 00 00 01 00 00 
00 04 b0 00 00 00 00 00 00 05 00 00 00 01 00 00 
00 04 83 00 00 00 00 00 00 05 00 00 00 01 00 00 
00 04 ce 00 00 00 00 00 00 05 00 00 00 01 00 00 
00 04 81 00 00 00 00 00 00 05 00 00 00 01 00 00 
00 04 66 00 00 00 00 00 00 05 00 00 00 01 00 00 
00 04 a5 00 00 00 00 00 00 05 00 00 00 01 00 00 
00 04 b2 00 00 00 00 00 00 05 00 00 00 01 00 00 
00 04 b4 00 00 00 00 00 00 05 00 00 00 01 00 00 
00 04 a3 00 00 00 00 00 00 05 00 00 00 01 00 00 
00 04 90 00 00 00 00 00 00 05 00 00 00 01 00 00 
00 04 d0 00 00 00 00 00 00 05 00 00 00 01 00 00 
00 04 88 00 00 00 00 00 00 05 00 00 00 01 00 00 
00 04 66 00 00 00 00 00 00 05 00 00 00 01 00 00 
00 04 c1 00 00 00 00 00 00 05 00 00 00 01 00 00 
00 04 e1 00 00 00 00 00 00 05 00 00 00 01 00 00 
00 04 7b 00 00 00 00 00 00 05 00 00 00 01 00 00 
00 04 9f 00 00 00 00 00 00 05 00 00 00 01 00 00 
00 04 bb 00 00 00 00 00 00 05 00 00 00 01 00 00 
00 04 aa 00 00 00 00 00 00 05 00 00 00 01 00 00 
00 04 7b 00 00 00 00 00 00 05 00 00 00 01 00 00 
00 04 6c 00 00 00 00 00 00 05 00 00 00 01 00 00 
00 04 f2 00 00 00 00 00 00 05 00 00 00 01 00 00 
00 05 36 00 00 00 00 00 00 05 00 00 00 01 00 00 
00 04 e7 00 00 00 00 00 00 05 00 00 00 01 00 00 
00 04 9f 00 00 00 00 00 00 05 00 00 00 01 00 00 
00 04 c1 00 00 00 00 00 00 05 00 00 00 01 00 00 
00 04 68 00 00 00 00 00 00 05 00 00 00 01 00 00 
00 04 34 00 00 00 00 00 00 05 00 00 00 01 00 00 
00 04 4e 00 00 00 00 00 00 05 00 00 00 01 00 00 
00 03 f0 00 00 00 00 00 00 05 00 00 00 01 00 00 
00 04 88 00 00 00 00 00 00 05 00 00 00 01 00 00 
00 04 57 00 00 00 00 00 00 05 00 00 00 01 00 00 
00 04 9f 00 00 00 00 00 00 05 00 00 00 01 00 00 
00 04 c3 00 00 00 00 00 00 05 00 00 00 01 00 00 
00 04 ff 00 00 00 00 00 00 05 00 00 00 01 00 00 
00 04 48 00 00 00 00 00 00 05 00 00 00 01 00 00 
00 04 da 00 00 00 00 00 00 05 00 00 00 01 00 00 
00 04 8a 00 00 00 00 00 00 05 00 00 00 01 00 00 
00 04 ce 00 00 00 00 00 00 05 00 00 00 01 00 00 
00 04 3a 00 00 00 00 00 00 05 00 00 00 01 00 00 
00 04 9b 00 00 00 00 00 00 05 00 00 00 01 00 00 
00 04 4e 00 00 00 00 00 00 05 00 00 00 01 00 00 
00 04 92 00 00 00 00 00 00 05 00 00 00 01 00 00 
00 04 7f 00 00 00 00 00 00 05 00 00 00 01 00 00 
00 04 83 00 00 00 00 00 00 01 00 00 00 00 00 00 
00 04 92 00 00 00 00 00 00 00 00 00 00 01 00 00 
00 04 4c 00 00 00 00 00 00 00 00 00 00 01 00 00 
00 04 92 00 00 00 00 00 00 00 00 00 00 01 00 00 
00 04 d0 00 00 00 00 00 00 00 00 00 00 01 00 00 
00 04 c7 00 00 00 00 00 00 00 00 00 00 01 00 00 
00 04 f4 00 00 00 00 00 00 00 00 00 00 01 00 00 
00 04 c3 00 00 00 00 00 00 00 00 00 00 01 00 00 
00 04 d8 00 00 00 00 00 00 00 00 00 00 01 00 00 
00 04 d4 00 00 00 00 00 00 00 00 00 00 01 00 00 
00 04 d6 00 00 00 00 00 00 00 00 00 00 01 00 00 
00 04 aa 00 00 00 00 00 00 00 00 00 00 01 00 00 
00 04 48 00 00 00 00 00 00 00 00 00 00 01 00 00 
00 04 48 00 00 00 00 00 00 00 00 00 00 01 00 00 
00 04 c7 00 00 00 00 00 00 00 00 00 00 01 00 00 
00 05 01 00 00 00 00 00 00 00 00 00 00 01 00 00 
00 05 0d 00 00 00 00 00 00 00 00 00 00 01 00 00 
00 04 c1 00 00 00 00 00 00 00 00 00 00 01 00 00 
00 04 f0 00 00 00 00 00 00 00 00 00 00 01 00 00 
00 04 df 00 00 00 00 00 00 00 00 00 00 01 00 00 
00 05 12 00 00 00 00 00 00 00 00 00 00 01 00 00 
00 04 f4 00 00 00 00 00 00 00 00 00 00 01 00 00 
00 05 16 00 00 00 00 00 00 00 00 00 00 01 00 00 
00 05 18 00 00 00 00 00 00 00 00 00 00 01 00 00 
00 05 23 00 00 00 00 00 00 00 00 00 00 01 00 00 
00 04 c3 00 00 00 00 00 00 00 00 00 00 01 00 00 
00 05 1a 00 00 00 00 00 00 00 00 00 00 01 00 00 
00 04 f0 00 00 00 00 00 00 00 00 00 00 01 00 00 
00 04 d2 00 00 00 00 00 00 00 00 00 00 01 00 00 
00 05 16 00 00 00 00 00 00 00 00 00 00 01 00 00 
00 04 f2 00 00 00 00 00 00 00 00 00 00 01 00 00 
00 04 d6 00 00 00 00 00 00 00 00 00 00 01 00 00 
00 04 e7 00 00 00 00 00 00 00 00 00 00 01 00 00 
00 05 12 00 00 00 00 00 00 00 00 00 00 01 00 00 
00 04 a5 00 00 00 00 00 00 00 00 00 00 01 00 00 
00 04 c3 00 00 00 00 00 00 00 00 00 00 01 00 00 
00 04 27 00 00 00 00 00 00 00 00 00 00 01 00 00 
00 04 dd 00 00 00 00 00 00 00 00 00 00 01 00 00 
00 04 aa 00 00 00 00 00 00 00 00 00 00 01 00 00 
00 04 da 00 00 00 00 00 00 00 00 00 00 01 00 00 
00 04 bf 00 00 00 00 00 00 00 00 00 00 01 00 00 
00 04 e9 00 00 00 00 00 00 00 00 00 00 01 00 00 
00 04 b6 00 00 00 00 00 00 00 00 00 00 01 00 00 
00 04 b8 00 00 00 00 00 00 00 00 00 00 01 00 00 
00 04 d2 00 00 00 00 00 00 00 00 00 00 01 00 00 
00 04 f0 00 00 00 00 00 00 00 00 00 00 01 00 00 
00 04 f0 00 00 00 00 00 00 00 00 00 00 01 00 00 
00 04 d6 00 00 00 00 00 00 00 00 00 00 01 00 00 
00 04 9b 00 00 00 00 00 00 00 00 00 00 01 00 00 
00 04 81 00 00 00 00 00 00 01 00 00 00 00 00 00 
00 04 61 00 00 00 00 00 00 00 00 00 00 01 00 00 
00 04 5b 00 00 00 00 00 00 00 00 00 00 01 00 00 
00 04 5f 00 00 00 00 00 00 00 00 00 00 01 00 00 
00 04 92 00 00 00 00 00 00 00 00 00 00 01 00 00 
00 04 85 00 00 00 00 00 00 00 00 00 00 01 00 00 
00 04 ae 00 00 00 00 00 00 00 00 00 00 01 00 00 
00 04 8e 00 00 00 00 00 00 00 00 00 00 01 00 00 
00 04 77 00 00 00 00 00 00 00 00 00 00 01 00 00 
00 04 d8 00 00 00 00 00 00 00 00 00 00 01 00 00 
00 04 a7 00 00 00 00 00 00 00 00 00 00 01 00 00 
00 04 c7 00 00 00 00 00 00 00 00 00 00 01 00 00 
00 04 8e 00 00 00 00 00 00 00 00 00 00 01 00 00 
00 04 9f 00 00 00 00 00 00 00 00 00 00 01 00 00 
00 04 e1 00 00 00 00 00 00 00 00 00 00 01 00 00 
00 04 ae 00 00 00 00 00 00 00 00 00 00 01 00 00 
00 04 e7 00 00 00 00 00 00 00 00 00 00 01 00 00 
00 04 e9 00 00 00 00 00 00 00 00 00 00 01 00 00 
00 04 bd 00 00 00 00 00 00 00 00 00 00 01 00 00 
00 04 a5 00 00 00 00 00 00 00 00 00 00 01 00 00 
00 04 e5 00 00 00 00 00 00 00 00 00 00 01 00 00 
00 04 8a 00 00 00 00 00 00 00 00 00 00 01 00 00 
00 04 8e 00 00 00 00 00 00 00 00 00 00 01 00 00 
00 04 d2 00 00 00 00 00 00 00 00 00 00 01 00 00 
00 04 b2 00 00 00 00 00 00 00 00 00 00 01 00 00 
00 04 8a 00 00 00 00 00 00 00 00 00 00 01 00 00 
00 04 70 00 00 00 00 00 00 00 00 00 00 01 00 00 
00 04 01 00 00 00 00 00 00 00 00 00 00 01 00 00 
00 04 59 00 00 00 00 00 00 00 00 00 00 01 00 00 
00 04 85 00 00 00 00 00 00 00 00 00 00 01 00 00 
00 04 c5 00 00 00 00 00 00 00 00 00 00 01 00 00 
00 04 d8 00 00 00 00 00 00 00 00 00 00 01 00 00 
00 04 f4 00 00 00 00 00 00 00 00 00 00 01 00 00 
00 04 a3 00 00 00 00 00 00 00 00 00 00 01 00 00 
00 04 b0 00 00 00 00 00 00 00 00 00 00 01 00 00 
00 04 da 00 00 00 00 00 00 00 00 00 00 01 00 00 
00 04 ae 00 00 00 00 00 00 00 00 00 00 01 00 00 
00 04 c9 00 00 00 00 00 00 00 00 00 00 01 00 00 
00 04 d4 00 00 00 00 00 00 00 00 00 00 01 00 00 
00 04 74 00 00 00 00 00 00 00 00 00 00 01 00 00 
00 04 aa 00 00 00 00 00 00 00 00 00 00 01 00 00 
00 04 c1 00 00 00 00 00 00 00 00 00 00 01 00 00 
00 04 88 00 00 00 00 00 00 00 00 00 00 01 00 00 
00 04 e7 00 00 00 00 00 00 00 00 00 00 01 00 00 
00 04 bd 00 00 00 00 00 00 00 00 00 00 01 00 00 
00 04 da 00 00 00 00 00 00 00 00 00 00 01 00 00 
00 05 09 00 00 00 00 00 00 00 00 00 00 01 00 00 
00 04 b0 00 00 00 00 00 00 00 00 00 00 01 00 00 
00 04 b2 00 00 00 00 00 00 00 00 00 00 01 00 00 
00 04 e1 00 00 00 00 00 00 00 00 00 00 01 00 00 
00 04 b4 00 00 00 00 00 00 00 00 00 00 01 00 00 
00 04 55 00 00 00 00 00 00 00 00 00 00 01 00 00 
00 04 b2 00 00 00 00 00 00 00 00 00 00 01 00 00 
00 04 59 00 00 00 00 00 00 00 00 00 00 01 00 00 
00 04 38 00 00 00 00 00 00 00 00 00 00 01 00 00 
00 04 34 00 00 00 00 00 00 00 00 00 00 01 00 00 
00 04 85 00 00 00 00 00 00 00 00 00 00 01 00 00 
00 04 a1 00 00 00 00 00 00 00 00 00 00 01 00 00 
00 04 66 00 00 00 00 00 00 00 00 00 00 01 00 00 
00 04 40 00 00 00 00 00 00 00 00 00 00 01 00 00 
00 04 5d 00 00 00 00 00 00 00 00 00 00 01 00 00 
00 04 6c 00 00 00 00 00 00 00 00 00 00 01 00 00 
00 04 77 00 00 00 00 00 00 00 00 00 00 01 00 00 
00 04 a5 00 00 00 00 00 00 00 00 00 00 01 00 00 
00 04 96 00 00 00 00 00 00 00 00 00 00 01 00 00 
00 04 90 00 00 00 00 00 00 00 00 00 00 01 00 00 
00 04 85 00 00 00 00 00 00 00 00 00 00 01 00 00 
00 04 a3 00 00 00 00 00 00 00 00 00 00 01 00 00 
00 04 7b 00 00 00 00 00 00 00 00 00 00 01 00 00 
00 04 b8 00 00 00 00 00 00 00 00 00 00 01 00 00 
00 04 c3 00 00 00 00 00 00 00 00 00 00 01 00 00 
00 04 9d 00 00 00 00 00 00 00 00 00 00 01 00 00 
00 04 4e 00 00 00 00 00 00 00 00 00 00 01 00 00 
00 04 1e 00 00 00 00 00 00 00 00 00 00 01 00 00 
00 04 9b 00 00 00 00 00 00 00 00 00 00 01 00 00 
00 04 74 00 00 00 00 00 00 00 00 00 00 01 00 00 
00 04 8e 00 00 00 00 00 00 00 00 00 00 01 00 00 
00 04 9d 00 00 00 00 00 00 00 00 00 00 01 00 00 
00 04 85 00 00 00 00 00 00 00 00 00 00 01 00 00 
00 04 ce 00 00 00 00 00 00 00 00 00 00 01 00 00 
00 04 c1 00 00 00 00 00 00 00 00 00 00 01 00 00 
00 04 6c 00 00 00 00 00 00 00 00 00 00 01 00 00 
00 04 6c 00 00 00 00 00 00 00 00 00 00 01 00 00 
00 04 14 00 00 00 00 00 00 00 00 00 00 01 00 00 
00 04 88 00 00 00 00 00 00 00 00 00 00 01 00 00 
00 04 c1 00 00 00 00 00 00 00 00 00 00 01 00 00 
00 04 f0 00 00 00 00 00 00 00 00 00 00 01 00 00 
00 04 d8 00 00 00 00 00 00 00 00 00 00 01 00 00 
00 04 fc 00 00 00 00 00 00 00 00 00 00 01 00 00 
00 04 8e 00 00 00 00 00 00 00 00 00 00 01 00 00 
00 04 96 00 00 00 00 00 00 00 00 00 00 01 00 00 
00 04 94 00 00 00 00 00 00 00 00 00 00 01 00 00 
00 04 7d 00 00 00 00 00 00 00 00 00 00 01 00 00 
00 04 5f 00 00 00 00 00 00 00 00 00 00 01 00 00 
00 04 57 00 00 00 00 00 00 00 00 00 00 01 00 00 
00 04 bb 00 00 00 00 00 00 00 00 00 00 01 00 00 
00 04 ae 00 00 00 00 00 00 00 00 00 00 01 00 00 
00 04 a5 00 00 00 00 00 00 00 00 00 00 01 00 00 
00 04 70 00 00 00 00 00 00 00 00 00 00 01 00 00 
00 04 74 00 00 00 00 00 00 00 00 00 00 01 00 00 
00 04 44 00 00 00 00 00 00 00 00 00 00 01 00 00 
00 04 c9 00 00 00 00 00 00 00 00 00 00 01 00 00 
00 04 d2 00 00 00 00 00 00 00 00 00 00 01 00 00 
00 04 a7 00 00 00 00 00 00 00 00 00 00 01 00 00 
00 04 7f 00 00 00 00 00 00 00 00 00 00 01 00 00 
00 04 85 00 00 00 00 00 00 00 00 00 00 01 00 00 
00 04 66 00 00 00 00 00 00 00 00 00 00 01 00 00 
00 04 8a 71 25 00 00 22 66 36 70 00 00 10 00 00 
00 04 5f 00 00 05 00 00 00 c2 84 00 00 fa 44 00 
00 04 92 00 00 05 00 00 00 c2 84 00 00 fa 44 00 
00 04 88 00 00 05 00 00 00 c2 84 00 00 fa 44 00 
00 04 9b 00 00 05 00 00 00 c2 84 00 00 fa 44 00 
00 04 df 00 00 05 00 00 00 c2 84 00 00 fa 44 00 
00 04 a5 00 00 05 00 00 00 c2 84 00 00 fa 44 00 
00 04 3a 00 00 05 00 00 00 c2 84 00 00 fa 44 00 
00 04 c7 00 00 05 00 00 00 c2 84 00 00 fa 44 00 
00 04 a5 00 00 05 00 00 00 c2 84 00 00 fa 44 00 
00 04 8c 00 00 05 00 00 00 c2 84 00 00 fa 44 00 
00 04 e9 00 00 05 00 00 00 c2 84 00 00 fa 44 00 
00 04 a5 00 00 05 00 00 00 c2 84 00 00 fa 44 00 
00 04 e9 00 00 05 00 00 00 c2 84 00 00 fa 44 00 
00 05 18 00 00 05 00 00 00 c2 84 00 00 fa 44 00 
00 05 29 00 00 05 00 00 00 c2 84 00 00 fa 44 00 
00 04 d8 00 00 05 00 00 00 c2 84 00 00 fa 44 00 
00 04 aa 00 00 05 00 00 00 c2 84 00 00 fa 44 00 
00 04 b8 00 00 05 00 00 00 c2 84 00 00 fa 44 00 
00 04 ee 00 00 05 00 00 00 c2 84 00 00 fa 44 00 
00 04 e9 00 00 05 00 00 00 c2 84 00 00 fa 44 00 
00 04 bb 00 00 05 00 00 00 c2 84 00 00 fa 44 00 
00 04 c9 00 00 05 00 00 00 c2 84 00 00 fa 44 00 
00 04 5b 00 00 05 00 00 00 c2 84 00 00 fa 44 00 
00 04 b4 00 00 05 00 00 00 c2 84 00 00 fa 44 00 
00 04 c1 00 00 05 00 00 00 c2 84 00 00 fa 44 00 
00 04 bf 00 00 05 00 00 00 c2 84 00 00 fa 44 00 
00 04 a3 00 00 05 00 00 00 c2 84 00 00 fa 44 00 
00 04 a7 00 00 05 00 00 00 c2 84 00 00 fa 44 00 
00 05 0d 00 00 05 00 00 00 c2 84 00 00 fa 44 00 
00 05 1a 00 00 05 00 00 00 c2 84 00 00 fa 44 00 
00 05 01 00 00 05 00 00 00 c2 84 00 00 fa 44 00 
00 04 7b 00 00 05 00 00 00 c2 84 00 00 fa 44 00 
00 04 7b 00 00 05 00 00 00 c2 84 00 00 fa 44 00 
00 04 b0 00 00 05 00 00 00 c2 84 00 00 fa 44 00 
00 04 5d 00 00 05 00 00 00 c2 84 00 00 fa 44 00 
00 04 88 00 00 05 00 00 00 c2 84 00 00 fa 44 00 
00 04 79 00 00 05 00 00 00 c2 84 00 00 fa 44 00 
00 04 b0 00 00 05 00 00 00 c2 84 00 00 fa 44 00 
00 04 66 00 00 05 00 00 00 c2 84 00 00 fa 44 00 
00 04 96 00 00 05 00 00 00 c2 84 00 00 fa 44 00 
00 05 05 00 00 05 00 00 00 c2 84 00 00 fa 44 00 
00 04 f2 00 00 05 00 00 00 c2 84 00 00 fa 44 00 
00 04 df 00 00 05 00 00 00 c2 84 00 00 fa 44 00 
00 04 bb 00 00 05 00 00 00 c2 84 00 00 fa 44 00 
00 04 70 00 00 05 00 00 00 c2 84 00 00 fa 44 00 
00 04 8e 00 00 05 00 00 00 c2 84 00 00 fa 44 00 
00 04 8a 00 00 05 00 00 00 c2 84 00 00 fa 44 00 
00 04 d4 00 00 05 00 00 00 c2 84 00 00 fa 44 00 
00 04 c5 00 00 05 00 00 00 c2 84 00 00 fa 44 00 
00 04 f0 00 00 05 00 00 00 c2 84 00 00 fa 44 00 
00 04 c3 00 00 05 00 00 00 c2 84 00 00 fa 44 00 
00 04 94 00 00 05 00 00 00 c2 84 00 00 fa 44 00 
00 04 c1 00 00 05 00 00 00 c2 84 00 00 fa 44 00 
00 04 b8 00 00 05 00 00 00 c2 84 00 00 fa 44 00 
00 04 9d 00 00 05 00 00 00 c2 84 00 00 fa 44 00 
00 05 49 00 00 05 00 00 00 c2 84 00 00 fa 44 00 
00 04 e9 00 00 05 00 00 00 c2 84 00 00 fa 44 00 
00 04 b0 00 00 05 00 00 00 c2 84 00 00 fa 44 00 
00 05 4d 00 00 05 00 00 00 c2 84 00 00 fa 44 00 
00 05 1a 00 00 05 00 00 00 c2 84 00 00 fa 44 00 
00 05 29 00 00 05 00 00 00 c2 84 00 00 fa 44 00 
00 04 dd 00 00 05 00 00 00 c2 84 00 00 fa 44 00 
00 04 f4 00 00 05 00 00 00 c2 84 00 00 fa 44 00 
00 04 96 00 00 05 00 00 00 c2 84 00 00 fa 44 00 
00 04 b6 00 00 05 00 00 00 c2 84 00 00 fa 44 00 
00 05 05 00 00 05 00 00 00 c2 84 00 00 fa 44 00 
00 04 fa 00 00 05 00 00 00 c2 84 00 00 fa 44 00 
00 04 dd 00 00 05 00 00 00 c2 84 00 00 fa 44 00 
00 04 ae 00 00 05 00 00 00 c2 84 00 00 fa 44 00 
00 04 df 00 00 05 00 00 00 c2 84 00 00 fa 44 00 
00 04 fc 00 00 05 00 00 00 c2 84 00 00 fa 44 00 
00 04 f6 00 00 05 00 00 00 c2 84 00 00 fa 44 00 
00 04 c9 00 00 05 00 00 00 c2 84 00 00 fa 44 00 
00 04 b6 00 00 05 00 00 00 c2 84 00 00 fa 44 00 
00 04 90 00 00 05 00 00 00 c2 84 00 00 fa 44 00 
00 04 c9 00 00 05 00 00 00 c2 84 00 00 fa 44 00 
00 04 b4 00 00 05 00 00 00 c2 84 00 00 fa 44 00 
00 04 5d 00 00 05 00 00 00 c2 84 00 00 fa 44 00 
00 04 3c 00 00 05 00 00 00 c2 84 00 00 fa 44 00 
00 04 5b 00 00 05 00 00 00 c2 84 00 00 fa 44 00 
00 04 83 00 00 05 00 00 00 c2 84 00 00 fa 44 00 
00 04 63 00 00 05 00 00 00 c2 84 00 00 fa 44 00 
00 04 2b 00 00 05 00 00 00 c2 84 00 00 fa 44 00 
00 04 d4 00 00 05 00 00 00 c2 84 00 00 fa 44 00 
00 05 43 00 00 05 00 00 00 c2 84 00 00 fa 44 00 
00 04 df 00 00 05 00 00 00 c2 84 00 00 fa 44 00 
00 04 c9 00 00 05 00 00 00 c2 84 00 00 fa 44 00 
00 04 a7 00 00 05 00 00 00 c2 84 00 00 fa 44 00 
00 05 2d 00 00 05 00 00 00 c2 84 00 00 fa 44 00 
00 04 f4 00 00 05 00 00 00 c2 84 00 00 fa 44 00 
00 04 88 00 00 05 00 00 00 c2 84 00 00 fa 44 00 
00 04 94 00 00 05 00 00 00 c2 84 00 00 fa 44 00 
00 04 f4 00 00 05 00 00 00 c2 84 00 00 fa 44 00 
00 04 f6 00 00 05 00 00 00 c2 84 00 00 fa 44 00 
00 04 ae 00 00 05 00 00 00 c2 84 00 00 fa 44 00 
00 04 ae 00 00 05 00 00 00 c2 84 00 00 fa 44 00 
00 04 ee 00 00 05 00 00 00 c2 84 00 00 fa 44 00 
00 05 07 00 00 05 00 00 00 c2 84 00 00 fa 44 00 
00 04 d2 00 00 05 00 00 00 c2 84 00 00 fa 44 00 
00 04 c5 00 00 05 00 00 00 c2 84 00 00 fa 44 00 
00 04 f4 00 00 05 00 00 00 c2 84 00 00 fa 44 00 
00 04 d0 00 00 05 00 00 00 c2 84 00 00 fa 44 00 
00 04 8a 00 00 05 00 00 00 c2 84 00 00 fa 44 00 
00 05 2f 00 00 05 00 00 00 c2 84 00 00 fa 44 00 
00 04 aa 00 00 05 00 00 00 c2 84 00 00 fa 44 00 
00 04 b4 00 00 05 00 00 00 c2 84 00 00 fa 44 00 
00 04 83 00 00 05 00 00 00 c2 84 00 00 fa 44 00 
00 04 dd 00 00 05 00 00 00 c2 84 00 00 fa 44 00 
00 04 b0 00 00 05 00 00 00 c2 84 00 00 fa 44 00 
00 04 92 00 00 05 00 00 00 c2 84 00 00 fa 44 00 
00 04 a3 00 00 05 00 00 00 c2 84 00 00 fa 44 00 
00 04 d0 00 00 05 00 00 00 c2 84 00 00 fa 44 00 
00 04 96 00 00 05 00 00 00 c2 84 00 00 fa 44 00 
00 04 7d 00 00 05 00 00 00 c2 84 00 00 fa 44 00 
00 04 68 00 00 05 00 00 00 c2 84 00 00 fa 44 00 
00 04 6e 00 00 05 00 00 00 c2 84 00 00 fa 44 00 
00 04 da 00 00 05 00 00 00 c2 84 00 00 fa 44 00 
00 04 cc 00 00 05 00 00 00 c2 84 00 00 fa 44 00 
00 04 c3 00 00 05 00 00 00 c2 84 00 00 fa 44 00 
00 04 bb 00 00 05 00 00 00 c2 84 00 00 fa 44 00 
00 04 cc 00 00 05 00 00 00 c2 84 00 00 fa 44 00 
00 04 d8 00 00 05 00 00 00 c2 84 00 00 fa 44 00 
00 05 0b 00 00 05 00 00 00 c2 84 00 00 fa 44 00 
00 04 f8 00 00 05 00 00 00 c2 84 00 00 fa 44 00 
00 04 fc 00 00 05 00 00 00 c2 84 00 00 fa 44 00 
00 04 8c 00 00 05 00 00 00 c2 84 00 00 fa 44 00 
00 05 09 00 00 05 00 00 00 c2 84 00 00 fa 44 00 
00 04 df 00 00 05 00 00 00 c2 84 00 00 fa 44 00 
00 04 f0 00 00 05 00 00 00 c2 84 00 00 fa 44 00 
00 04 d2 00 00 05 00 00 00 c2 84 00 00 fa 44 00 
00 04 f8 00 00 05 00 00 00 c2 84 00 00 fa 44 00 
00 05 21 00 00 05 00 00 00 c2 84 00 00 fa 44 00 
00 04 e9 00 00 05 00 00 00 c2 84 00 00 fa 44 00 
00 05 07 00 00 05 00 00 00 c2 84 00 00 fa 44 00 
00 04 9b 00 00 05 00 00 00 c2 84 00 00 fa 44 00 
00 04 f0 00 00 05 00 00 00 c2 84 00 00 fa 44 00 
00 04 fc 00 00 05 00 00 00 c2 84 00 00 fa 44 00 
00 04 a7 00 00 05 00 00 00 c2 84 00 00 fa 44 00 
00 04 25 00 00 05 00 00 00 c2 84 00 00 fa 44 00 
00 04 4a 00 00 05 00 00 00 c2 84 00 00 fa 44 00 
00 04 99 00 00 05 00 00 00 c2 84 00 00 fa 44 00 
00 04 38 00 00 05 00 00 00 c2 84 00 00 fa 44 00 
00 04 66 00 00 05 00 00 00 c2 84 00 00 fa 44 00 
00 05 07 00 00 05 00 00 00 c2 84 00 00 fa 44 00 
00 04 ee 00 00 05 00 00 00 c2 84 00 00 fa 44 00 
00 04 f4 00 00 05 00 00 00 c2 84 00 00 fa 44 00 
00 04 ce 00 00 05 00 00 00 c2 84 00 00 fa 44 00 
00 04 eb 00 00 05 00 00 00 c2 84 00 00 fa 44 00 
00 04 ff 00 00 05 00 00 00 c2 84 00 00 fa 44 00 
00 04 9d 00 00 05 00 00 00 c2 84 00 00 fa 44 00 
00 05 34 00 00 05 00 00 00 c2 84 00 00 fa 44 00 
00 04 d2 00 00 05 00 00 00 c2 84 00 00 fa 44 00 
00 04 ae 00 00 05 00 00 00 c2 84 00 00 fa 44 00 
00 04 7d 00 00 05 00 00 00 c2 84 00 00 fa 44 00 
00 04 bd 00 00 05 00 00 00 c2 84 00 00 fa 44 00 
00 04 99 00 00 05 00 00 00 c2 84 00 00 fa 44 00 
00 04 a3 00 00 05 00 00 00 c2 84 00 00 fa 44 00 
00 04 da 00 00 05 00 00 00 c2 84 00 00 fa 44 00 
00 04 c3 00 00 05 00 00 00 c2 84 00 00 fa 44 00 
00 04 bd 00 00 05 00 00 00 c2 84 00 00 fa 44 00 
00 04 f4 00 00 05 00 00 00 c2 84 00 00 fa 44 00 
00 04 83 00 00 05 00 00 00 c2 84 00 00 fa 44 00 
00 05 10 00 00 05 00 00 00 c2 84 00 00 fa 44 00 
00 04 d2 00 00 05 00 00 00 c2 84 00 00 fa 44 00 
00 04 9d 00 00 05 00 00 00 c2 84 00 00 fa 44 00 
00 04 a7 00 00 05 00 00 00 c2 84 00 00 fa 44 00 
00 04 c1 00 00 05 00 00 00 c2 84 00 00 fa 44 00 
00 04 85 00 00 05 00 00 00 c2 84 00 00 fa 44 00 
00 04 44 00 00 05 00 00 00 c2 84 00 00 fa 44 00 
00 04 7d 00 00 05 00 00 00 c2 84 00 00 fa 44 00 
00 04 03 00 00 05 00 00 00 c2 84 00 00 fa 44 00 
00 04 9d 00 00 05 00 00 00 c2 84 00 00 fa 44 00 
00 04 90 00 00 05 00 00 00 c2 84 00 00 fa 44 00 
00 04 9b 00 00 05 00 00 00 c2 84 00 00 fa 44 00 
00 04 9b 00 00 05 00 00 00 c2 84 00 00 fa 44 00 
00 04 d0 00 00 05 00 00 00 c2 84 00 00 fa 44 00 
00 04 9b 00 00 05 00 00 00 c2 84 00 00 fa 44 00 
00 04 c7 00 00 05 00 00 00 c2 84 00 00 fa 44 00 
00 04 bf 00 00 05 00 00 00 c2 84 00 00 fa 44 00 
00 04 e3 00 00 05 00 00 00 c2 84 00 00 fa 44 00 
00 04 f4 00 00 05 00 00 00 c2 84 00 00 fa 44 00 
00 04 eb 00 00 05 00 00 00 c2 84 00 00 fa 44 00 
00 04 c7 00 00 05 00 00 00 c2 84 00 00 fa 44 00 
00 05 14 00 00 05 00 00 00 c2 84 00 00 fa 44 00 
00 04 ff 00 00 05 00 00 00 c2 84 00 00 fa 44 00 
00 04 c5 00 00 05 00 00 00 c2 84 00 00 fa 44 00 
00 04 f8 00 00 05 00 00 00 c2 84 00 00 fa 44 00 
00 04 ee 00 00 05 00 00 00 c2 84 00 00 fa 44 00 
00 04 f4 00 00 05 00 00 00 c2 84 00 00 fa 44 00 
00 04 df 00 00 05 00 00 00 c2 84 00 00 fa 44 00 
00 04 da 00 00 05 00 00 00 c2 84 00 00 fa 44 00 
00 04 92 00 00 05 00 00 00 c2 84 00 00 fa 44 00 
00 04 83 00 00 05 00 00 00 c2 84 00 00 fa 44 00 
00 04 a5 00 00 05 00 00 00 c2 84 00 00 fa 44 00 
00 04 90 00 00 05 00 00 00 c2 84 00 00 fa 44 00 
00 04 68 00 00 05 00 00 00 c2 84 00 00 fa 44 00 
00 04 6a 00 00 05 00 00 00 c2 84 00 00 fa 44 00 
00 04 94 00 00 05 00 00 00 c2 84 00 00 fa 44 00 
00 04 6a 00 00 05 00 00 00 c2 84 00 00 fa 44 00 
00 04 99 00 00 05 00 00 00 c2 84 00 00 fa 44 00 
00 04 a7 00 00 05 00 00 00 c2 84 00 00 fa 44 00 
00 04 8a 00 00 05 00 00 00 c2 84 00 00 fa 44 00 
00 03 fa 00 00 05 00 00 00 c2 84 00 00 fa 44 00 
00 04 0d 00 00 05 00 00 00 c2 84 00 00 fa 44 00 
00 04 8c 00 00 05 00 00 00 c2 84 00 00 fa 44 00 
00 04 50 00 00 05 00 00 00 c2 84 00 00 fa 44 00 
00 04 ac 00 00 05 00 00 00 c2 84 00 00 fa 44 00 
00 04 a7 00 00 05 00 00 00 c2 84 00 00 fa 44 00 
00 04 61 00 00 05 00 00 00 c2 84 00 00 fa 44 00 
00 04 a3 00 00 05 00 00 00 c2 84 00 00 fa 44 00 
00 04 7f 00 00 05 00 00 00 c2 84 00 00 fa 44 00 
00 04 72 00 00 05 00 00 00 c2 84 00 00 fa 44 00 
00 04 8e 00 00 05 00 00 00 c2 84 00 00 fa 44 00 
00 04 77 00 00 05 00 00 00 c2 84 00 00 fa 44 00 
00 04 bb 00 00 05 00 00 00 c2 84 00 00 fa 44 00 
00 04 f8 00 00 05 00 00 00 c2 84 00 00 fa 44 00 
00 05 0b 00 00 05 00 00 00 c2 84 00 00 fa 44 00 
00 04 c5 00 00 05 00 00 00 c2 84 00 00 fa 44 00 
00 05 05 00 00 05 00 00 00 c2 84 00 00 fa 44 00 
00 04 da 00 00 05 00 00 00 c2 84 00 00 fa 44 00 
00 04 da 00 00 05 00 00 00 c2 84 00 00 fa 44 00 
00 04 e3 00 00 05 00 00 00 c2 84 00 00 fa 44 00 
00 04 bb 00 00 05 00 00 00 c2 84 00 00 fa 44 00 
00 04 ce 00 00 05 00 00 00 c2 84 00 00 fa 44 00 
00 04 aa 00 00 05 00 00 00 c2 84 00 00 fa 44 00 
00 04 d8 00 00 05 00 00 00 c2 84 00 00 fa 44 00 
00 05 36 00 00 05 00 00 00 c2 84 00 00 fa 44 00 
00 05 10 00 00 05 00 00 00 c2 84 00 00 fa 44 00 
00 04 9d 00 00 05 00 00 00 c2 84 00 00 fa 44 00 
00 05 12 00 00 05 00 00 00 c2 84 00 00 fa 44 00 
00 04 fc 00 00 05 00 00 00 c2 84 00 00 fa 44 00 
00 05 1e 00 00 05 00 00 00 c2 84 00 00 fa 44 00 
00 04 fc 00 00 05 00 00 00 c2 84 00 00 fa 44 00 
00 04 eb 00 00 05 00 00 00 c2 84 00 00 fa 44 00 
00 04 df 00 00 05 00 00 00 c2 84 00 00 fa 44 00 
00 04 d8 00 00 05 00 00 00 c2 84 00 00 fa 44 00 
00 04 d4 00 00 05 00 00 00 c2 84 00 00 fa 44 00 
00 04 f6 00 00 05 00 00 00 c2 84 00 00 fa 44 00 
00 05 0d 00 00 05 00 00 00 c2 84 00 00 fa 44 00 
00 04 da 00 00 05 00 00 00 c2 84 00 00 fa 44 00 
00 04 cc 00 00 05 00 00 00 c2 84 00 00 fa 44 00 
00 04 96 00 00 05 00 00 00 c2 84 00 00 fa 44 00 
00 04 63 00 00 05 00 00 00 c2 84 00 00 fa 44 00 
00 04 85 00 00 05 00 00 00 c2 84 00 00 fa 44 00 
00 04 c9 00 00 05 00 00 00 c2 84 00 00 fa 44 00 
00 04 88 00 00 05 00 00 00 c2 84 00 00 fa 44 00 
00 04 c9 00 00 05 00 00 00 c2 84 00 00 fa 44 00 
00 04 70 00 00 05 00 00 00 c2 84 00 00 fa 44 00 
00 04 1a 00 00 05 00 00 00 c2 84 00 00 fa 44 00 
00 04 0b 00 00 05 00 00 00 c2 84 00 00 fa 44 00 
00 04 3c 00 00 05 00 00 00 c2 84 00 00 fa 44 00 
00 04 6c 00 00 05 00 00 00 c2 84 00 00 fa 44 00 
00 04 23 00 00 05 00 00 00 c2 84 00 00 fa 44 00 
00 04 46 00 00 05 00 00 00 c2 84 00 00 fa 44 00 
00 04 c7 00 00 05 00 00 00 c2 84 00 00 fa 44 00 
00 04 8a 00 00 05 00 00 00 c2 84 00 00 fa 44 00 
00 04 5f 00 00 05 00 00 00 c2 84 00 00 fa 44 00 
00 04 72 00 00 05 00 00 00 c2 84 00 00 fa 44 00 
00 04 cc 00 00 05 00 00 00 c2 84 00 00 fa 44 00 
00 04 bd 00 00 05 00 00 00 c2 84 00 00 fa 44 00 
00 04 c3 00 00 05 00 00 00 c2 84 00 00 fa 44 00 
00 04 e3 00 00 05 00 00 00 c2 84 00 00 fa 44 00 
00 04 a3 00 00 05 00 00 00 c2 84 00 00 fa 44 00 
00 04 a5 00 00 05 00 00 00 c2 84 00 00 fa 44 00 
00 04 c3 00 00 05 00 00 00 c2 84 00 00 fa 44 00 
00 04 bd 00 00 05 00 00 00 c2 84 00 00 fa 44 00 
00 04 df 00 00 05 00 00 00 c2 84 00 00 fa 44 00 
00 04 d0 00 00 05 00 00 00 c2 84 00 00 fa 44 00 
00 04 99 00 00 05 00 00 00 c2 84 00 00 fa 44 00 
00 04 57 00 00 05 00 00 00 c2 84 00 00 fa 44 00 
00 04 7f 00 00 05 00 00 00 c2 84 00 00 fa 44 00 
00 04 59 00 00 05 00 00 00 c2 84 00 00 fa 44 00 
00 04 cc 00 00 05 00 00 00 c2 84 00 00 fa 44 00 
00 04 c7 00 00 05 00 00 00 c2 84 00 00 fa 44 00 
00 04 8c 00 00 05 00 00 00 c2 84 00 00 fa 44 00 
00 04 ce 00 00 05 00 00 00 c2 84 00 00 fa 44 00 
00 04 aa 00 00 05 00 00 00 c2 84 00 00 fa 44 00 
00 04 29 00 00 05 00 00 00 c2 84 00 00 fa 44 00 
00 04 27 00 00 05 00 00 00 c2 84 00 00 fa 44 00 
00 04 7d 00 00 05 00 00 00 c2 84 00 00 fa 44 00 
00 04 9f 00 00 05 00 00 00 c2 84 00 00 fa 44 00 
00 04 eb 00 00 05 00 00 00 c2 84 00 00 fa 44 00 
00 05 14 00 00 05 00 00 00 c2 84 00 00 fa 44 00 
00 05 21 00 00 05 00 00 00 c2 84 00 00 fa 44 00 
00 04 79 00 00 05 00 00 00 c2 84 00 00 fa 44 00 
00 04 61 00 00 05 00 00 00 c2 84 00 00 fa 44 00 
00 04 81 00 00 05 00 00 00 c2 84 00 00 fa 44 00 
00 04 96 00 00 05 00 00 00 c2 84 00 00 fa 44 00 
00 04 9d 00 00 05 00 00 00 c2 84 00 00 fa 44 00 
00 04 bd 00 00 05 00 00 00 c2 84 00 00 fa 44 00 
00 04 bd 00 00 05 00 00 00 c2 84 00 00 fa 44 00 
00 04 dd 00 00 05 00 00 00 c2 84 00 00 fa 44 00 
00 04 f8 00 00 05 00 00 00 c2 84 00 00 fa 44 00 
00 05 12 00 00 05 00 00 00 c2 84 00 00 fa 44 00 
00 04 fc 00 00 05 00 00 00 c2 84 00 00 fa 44 00 
00 04 e7 00 00 05 00 00 00 c2 84 00 00 fa 44 00 
00 05 0b 00 00 05 00 00 00 c2 84 00 00 fa 44 00 
00 04 b8 00 00 05 00 00 00 c2 84 00 00 fa 44 00 
00 04 d6 00 00 05 00 00 00 c2 84 00 00 fa 44 00 
00 04 79 00 00 05 00 00 00 c2 84 00 00 fa 44 00 
00 04 77 00 00 05 00 00 00 c2 84 00 00 fa 44 00 
00 04 bf 00 00 05 00 00 00 c2 84 00 00 fa 44 00 
00 04 f6 00 00 05 00 00 00 c2 84 00 00 fa 44 00 
00 04 df 00 00 05 00 00 00 c2 84 00 00 fa 44 00 
00 04 ce 00 00 05 00 00 00 c2 84 00 00 fa 44 00 
00 04 68 00 00 05 00 00 00 c2 84 00 00 fa 44 00 
00 04 85 00 00 05 00 00 00 c2 84 00 00 fa 44 00 
00 04 fc 00 00 05 00 00 00 c2 84 00 00 fa 44 00 
00 05 07 00 00 05 00 00 00 c2 84 00 00 fa 44 00 
00 05 0b 00 00 05 00 00 00 c2 84 00 00 fa 44 00 
00 04 d4 00 00 05 00 00 00 c2 84 00 00 fa 44 00 
00 05 27 00 00 05 00 00 00 c2 84 00 00 fa 44 00 
00 05 4b 00 00 05 00 00 00 c2 84 00 00 fa 44 00 
00 04 f2 00 00 05 00 00 00 c2 84 00 00 fa 44 00 
00 05 38 00 00 05 00 00 00 c2 84 00 00 fa 44 00 
00 04 a7 00 00 05 00 00 00 c2 84 00 00 fa 44 00 
00 04 99 00 00 05 00 00 00 c2 84 00 00 fa 44 00 
00 04 9b 00 00 05 00 00 00 c2 84 00 00 fa 44 00 
00 04 81 00 00 05 00 00 00 c2 84 00 00 fa 44 00 
00 04 4a 00 00 05 00 00 00 c2 84 00 00 fa 44 00 
00 04 2b 00 00 05 00 00 00 c2 84 00 00 fa 44 00 
00 04 38 00 00 05 00 00 00 c2 84 00 00 fa 44 00 
00 04 48 00 00 05 00 00 00 c2 84 00 00 fa 44 00 
00 04 bf 00 00 05 00 00 00 c2 84 00 00 fa 44 00 
00 04 9d 00 00 05 00 00 00 c2 84 00 00 fa 44 00 
00 04 b2 00 00 05 00 00 00 c2 84 00 00 fa 44 00 
00 04 8e 00 00 05 00 00 00 c2 84 00 00 fa 44 00 
00 04 6a 00 00 05 00 00 00 c2 84 00 00 fa 44 00 
00 04 36 00 00 05 00 00 00 c2 84 00 00 fa 44 00 
00 04 ac 00 00 05 00 00 00 c2 84 00 00 fa 44 00 
00 04 a7 00 00 05 00 00 00 c2 84 00 00 fa 44 00 
00 05 0d 00 00 05 00 00 00 c2 84 00 00 fa 44 00 
00 04 c5 00 00 05 00 00 00 c2 84 00 00 fa 44 00 
00 04 8e 00 00 05 00 00 00 c2 84 00 00 fa 44 00 
00 04 b0 00 00 05 00 00 00 c2 84 00 00 fa 44 00 
00 04 b6 00 00 05 00 00 00 c2 84 00 00 fa 44 00 
00 04 7d 00 00 05 00 00 00 c2 84 00 00 fa 44 00 
00 04 92 00 00 05 00 00 00 c2 84 00 00 fa 44 00 
00 04 4e 00 00 05 00 00 00 c2 84 00 00 fa 44 00 
00 04 9b 00 00 05 00 00 00 c2 84 00 00 fa 44 00 
00 04 90 00 00 05 00 00 00 c2 84 00 00 fa 44 00 
00 04 94 00 00 05 00 00 00 c2 84 00 00 fa 44 00 
00 04 d2 00 00 05 00 00 00 c2 84 00 00 fa 44 00 
00 04 66 00 00 05 00 00 00 c2 84 00 00 fa 44 00 
00 04 5d 00 00 05 00 00 00 c2 84 00 00 fa 44 00 
00 04 7b 00 00 05 00 00 00 c2 84 00 00 fa 44 00 
00 04 d6 00 00 05 00 00 00 c2 84 00 00 fa 44 00 
00 04 da 00 00 05 00 00 00 c2 84 00 00 fa 44 00 
00 04 9b 00 00 05 00 00 00 c2 84 00 00 fa 44 00 
00 04 61 00 00 05 00 00 00 c2 84 00 00 fa 44 00 
00 04 21 00 00 05 00 00 00 c2 84 00 00 fa 44 00 
00 04 7f 00 00 05 00 00 00 c2 84 00 00 fa 44 00 
00 04 88 00 00 05 00 00 00 c2 84 00 00 fa 44 00 
00 04 bb 00 00 05 00 00 00 c2 84 00 00 fa 44 00 
00 04 74 00 00 05 00 00 00 c2 84 00 00 fa 44 00 
00 04 68 00 00 05 00 00 00 c2 84 00 00 fa 44 00 
00 04 83 00 00 05 00 00 00 c2 84 00 00 fa 44 00 
00 04 5b 00 00 05 00 00 00 c2 84 00 00 fa 44 00 
00 04 4a 00 00 05 00 00 00 c2 84 00 00 fa 44 00 
00 04 e9 00 00 05 00 00 00 c2 84 00 00 fa 44 00 
00 05 38 00 00 05 00 00 00 c2 84 00 00 fa 44 00 
00 05 4b 00 00 05 00 00 00 c2 84 00 00 fa 44 00 
00 04 f0 00 00 05 00 00 00 c2 84 00 00 fa 44 00 
00 04 f2 00 00 05 00 00 00 c2 84 00 00 fa 44 00 
00 04 83 00 00 05 00 00 00 c2 84 00 00 fa 44 00 
00 04 eb 00 00 05 00 00 00 c2 84 00 00 fa 44 00 
00 04 79 00 00 05 00 00 00 c2 84 00 00 fa 44 00 
00 04 c9 00 00 05 00 00 00 c2 84 00 00 fa 44 00 
00 05 10 00 00 05 00 00 00 c2 84 00 00 fa 44 00 
00 04 b6 00 00 05 00 00 00 c2 84 00 00 fa 44 00 
00 04 e7 00 00 05 00 00 00 c2 84 00 00 fa 44 00 
00 04 bf 00 00 05 00 00 00 c2 84 00 00 fa 44 00 
00 04 fa 00 00 05 00 00 00 c2 84 00 00 fa 44 00 
00 04 c9 00 00 05 00 00 00 c2 84 00 00 fa 44 00 
00 05 05 00 00 05 00 00 00 c2 84 00 00 fa 44 00 
00 05 01 00 00 05 00 00 00 c2 84 00 00 fa 44 00 
00 04 d8 00 00 05 00 00 00 c2 84 00 00 fa 44 00 
00 04 d0 00 00 05 00 00 00 c2 84 00 00 fa 44 00 
00 05 1e 00 00 05 00 00 00 c2 84 00 00 fa 44 00 
00 05 0d 00 00 05 00 00 00 c2 84 00 00 fa 44 00 
00 04 d8 00 00 05 00 00 00 c2 84 00 00 fa 44 00 
00 05 2f 00 00 05 00 00 00 c2 84 00 00 fa 44 00 
00 05 0b 00 00 05 00 00 00 c2 84 00 00 fa 44 00 
00 04 b0 00 00 05 00 00 00 c2 84 00 00 fa 44 00 
00 04 8e 00 00 05 00 00 00 c2 84 00 00 fa 44 00 
00 04 cc 00 00 05 00 00 00 c2 84 00 00 fa 44 00 
00 04 9d 00 00 05 00 00 00 c2 84 00 00 fa 44 00 
00 04 94 00 00 05 00 00 00 c2 84 00 00 fa 44 00 
00 04 f4 00 00 05 00 00 00 c2 84 00 00 fa 44 00 
00 04 f8 00 00 05 00 00 00 c2 84 00 00 fa 44 00 
00 04 ee 00 00 05 00 00 00 c2 84 00 00 fa 44 00 
00 04 e3 00 00 05 00 00 00 c2 84 00 00 fa 44 00 
00 04 fa 00 00 05 00 00 00 c2 84 00 00 fa 44 00 
00 05 12 00 00 05 00 00 00 c2 84 00 00 fa 44 00 
00 04 9f 00 00 05 00 00 00 c2 84 00 00 fa 44 00 
00 04 e3 00 00 05 00 00 00 c2 84 00 00 fa 44 00 
00 05 25 00 00 05 00 00 00 c2 84 00 00 fa 44 00 
00 04 fc 00 00 05 00 00 00 c2 84 00 00 fa 44 00 
00 04 d4 00 00 05 00 00 00 c2 84 00 00 fa 44 00 
00 05 07 00 00 05 00 00 00 c2 84 00 00 fa 44 00 
00 04 d0 00 00 05 00 00 00 c2 84 00 00 fa 44 00 
00 04 ae 00 00 05 00 00 00 c2 84 00 00 fa 44 00 
00 04 d0 00 00 05 00 00 00 c2 84 00 00 fa 44 00 
00 04 fc 00 00 05 00 00 00 c2 84 00 00 fa 44 00 
00 04 6c 00 00 05 00 00 00 c2 84 00 00 fa 44 00 
00 04 c9 00 00 05 00 00 00 c2 84 00 00 fa 44 00 
00 04 d4 00 00 05 00 00 00 c2 84 00 00 fa 44 00 
00 04 b4 00 00 05 00 00 00 c2 84 00 00 fa 44 00 
00 04 85 00 00 05 00 00 00 c2 84 00 00 fa 44 00 
00 04 c7 00 00 05 00 00 00 c2 84 00 00 fa 44 00 
00 04 aa 00 00 05 00 00 00 c2 84 00 00 fa 44 00 
00 04 a7 00 00 05 00 00 00 c2 84 00 00 fa 44 00 
00 04 55 00 00 05 00 00 00 c2 84 00 00 fa 44 00 
00 04 6a 00 00 05 00 00 00 c2 84 00 00 fa 44 00 
00 04 ae 00 00 05 00 00 00 c2 84 00 00 fa 44 00 
00 04 8c 00 00 05 00 00 00 c2 84 00 00 fa 44 00 
00 04 3c 00 00 05 00 00 00 c2 84 00 00 fa 44 00 
00 04 83 00 00 05 00 00 00 c2 84 00 00 fa 44 00 
00 04 88 00 00 05 00 00 00 c2 84 00 00 fa 44 00 
00 04 96 00 00 05 00 00 00 c2 84 00 00 fa 44 00 
00 04 72 00 00 05 00 00 00 c2 84 00 00 fa 44 00 
00 04 9d 00 00 05 00 00 00 c2 84 00 00 fa 44 00 
00 04 81 00 00 05 00 00 00 c2 84 00 00 fa 44 00 
00 04 a5 00 00 05 00 00 00 c2 84 00 00 fa 44 00 
00 04 40 00 00 05 00 00 00 c2 84 00 00 fa 44 00 
00 04 96 00 00 05 00 00 00 c2 84 00 00 fa 44 00 
00 04 48 00 00 05 00 00 00 c2 84 00 00 fa 44 00 
00 04 36 00 00 05 00 00 00 c2 84 00 00 fa 44 00 
00 04 40 00 00 05 00 00 00 c2 84 00 00 fa 44 00 
00 04 96 00 00 05 00 00 00 c2 84 00 00 fa 44 00 
00 05 1e 00 00 05 00 00 00 c2 84 00 00 fa 44 00 
00 05 07 00 00 05 00 00 00 c2 84 00 00 fa 44 00 
00 04 df 00 00 05 00 00 00 c2 84 00 00 fa 44 00 
00 04 9b 00 00 05 00 00 00 c2 84 00 00 fa 44 00 
00 04 79 00 00 05 00 00 00 c2 84 00 00 fa 44 00 
00 04 bd 00 00 05 00 00 00 c2 84 00 00 fa 44 00 
00 04 b4 00 00 05 00 00 00 c2 84 00 00 fa 44 00 
00 04 f0 00 00 05 00 00 00 c2 84 00 00 fa 44 00 
00 04 9d 00 00 05 00 00 00 c2 84 00 00 fa 44 00 
00 04 bb 00 00 05 00 00 00 c2 84 00 00 fa 44 00 
00 04 b8 00 00 05 00 00 00 c2 84 00 00 fa 44 00 
00 04 99 00 00 05 00 00 00 c2 84 00 00 fa 44 00 
00 04 7b 00 00 05 00 00 00 c2 84 00 00 fa 44 00 
00 04 7b 00 00 05 00 00 00 c2 84 00 00 fa 44 00 
00 04 4c 00 00 05 00 00 00 c2 84 00 00 fa 44 00 
00 04 5b 00 00 05 00 00 00 c2 84 00 00 fa 44 00 
00 04 63 00 00 05 00 00 00 c2 84 00 00 fa 44 00 
00 04 23 00 00 05 00 00 00 c2 84 00 00 fa 44 00 
00 04 23 00 00 05 00 00 00 c2 84 00 00 fa 44 00 
00 04 7d 00 00 05 00 00 00 c2 84 00 00 fa 44 00 
00 04 2f 00 00 05 00 00 00 c2 84 00 00 fa 44 00 
00 04 88 00 00 05 00 00 00 c2 84 00 00 fa 44 00 
00 04 ae 00 00 05 00 00 00 c2 84 00 00 fa 44 00 
00 05 3e 00 00 05 00 00 00 c2 84 00 00 fa 44 00 
00 05 18 00 00 05 00 00 00 c2 84 00 00 fa 44 00 
00 04 f6 00 00 05 00 00 00 c2 84 00 00 fa 44 00 
00 04 f8 00 00 05 00 00 00 c2 84 00 00 fa 44 00 
00 04 ff 00 00 05 00 00 00 c2 84 00 00 fa 44 00 
00 04 ae 00 00 05 00 00 00 c2 84 00 00 fa 44 00 
00 04 bd 00 00 05 00 00 00 c2 84 00 00 fa 44 00 
00 04 cc 00 00 05 00 00 00 c2 84 00 00 fa 44 00 
00 05 57 00 00 05 00 00 00 c2 84 00 00 fa 44 00 
00 04 d0 00 00 05 00 00 00 c2 84 00 00 fa 44 00 
00 04 c5 00 00 05 00 00 00 c2 84 00 00 fa 44 00 
00 04 d2 00 00 05 00 00 00 c2 84 00 00 fa 44 00 
00 04 ce 00 00 05 00 00 00 c2 84 00 00 fa 44 00 
00 04 99 00 00 05 00 00 00 c2 84 00 00 fa 44 00 
00 04 d4 00 00 05 00 00 00 c2 84 00 00 fa 44 00 
00 05 01 00 00 05 00 00 00 c2 84 00 00 fa 44 00 
00 04 f2 00 00 05 00 00 00 c2 84 00 00 fa 44 00 
00 04 85 00 00 05 00 00 00 c2 84 00 00 fa 44 00 
00 04 8e 00 00 05 00 00 00 c2 84 00 00 fa 44 00 
00 04 92 00 00 05 00 00 00 c2 84 00 00 fa 44 00 
00 04 92 00 00 05 00 00 00 c2 84 00 00 fa 44 00 
00 04 7d 00 00 05 00 00 00 c2 84 00 00 fa 44 00 
00 04 44 00 00 05 00 00 00 c2 84 00 00 fa 44 00 
00 04 a7 00 00 05 00 00 00 c2 84 00 00 fa 44 00 
00 04 7f 00 00 05 00 00 00 c2 84 00 00 fa 44 00 
00 04 b2 00 00 05 00 00 00 c2 84 00 00 fa 44 00 
00 04 d0 00 00 05 00 00 00 c2 84 00 00 fa 44 00 
00 04 c9 00 00 05 00 00 00 c2 84 00 00 fa 44 00 
00 04 b2 00 00 05 00 00 00 c2 84 00 00 fa 44 00 
00 05 01 00 00 05 00 00 00 c2 84 00 00 fa 44 00 
00 04 8e 00 00 05 00 00 00 c2 84 00 00 fa 44 00 
00 04 d4 00 00 05 00 00 00 c2 84 00 00 fa 44 00 
00 05 03 00 00 05 00 00 00 c2 84 00 00 fa 44 00 
00 04 f0 00 00 05 00 00 00 c2 84 00 00 fa 44 00 
00 04 fc 00 00 05 00 00 00 c2 84 00 00 fa 44 00 
00 05 40 00 00 05 00 00 00 c2 84 00 00 fa 44 00 
00 04 e7 00 00 05 00 00 00 c2 84 00 00 fa 44 00 
00 05 3a 00 00 05 00 00 00 c2 84 00 00 fa 44 00 
00 04 e5 00 00 05 00 00 00 c2 84 00 00 fa 44 00 
00 04 b0 00 00 05 00 00 00 c2 84 00 00 fa 44 00 
00 04 c3 00 00 05 00 00 00 c2 84 00 00 fa 44 00 
00 04 81 00 00 05 00 00 00 c2 84 00 00 fa 44 00 
00 04 a3 00 00 05 00 00 00 c2 84 00 00 fa 44 00 
00 04 46 00 00 05 00 00 00 c2 84 00 00 fa 44 00 
00 04 79 00 00 05 00 00 00 c2 84 00 00 fa 44 00 
00 04 5f 00 00 05 00 00 00 c2 84 00 00 fa 44 00 
00 04 5f 00 00 05 00 00 00 c2 84 00 00 fa 44 00 
00 04 99 00 00 05 00 00 00 c2 84 00 00 fa 44 00 
00 04 b4 00 00 05 00 00 00 c2 84 00 00 fa 44 00 
00 04 bf 00 00 05 00 00 00 c2 84 00 00 fa 44 00 
00 04 bf 00 00 05 00 00 00 c2 84 00 00 fa 44 00 
00 04 bb 00 00 05 00 00 00 c2 84 00 00 fa 44 00 
00 04 a3 00 00 05 00 00 00 c2 84 00 00 fa 44 00 
00 04 88 00 00 05 00 00 00 c2 84 00 00 fa 44 00 
00 04 bb 00 00 05 00 00 00 c2 84 00 00 fa 44 00 
00 04 ce 00 00 05 00 00 00 c2 84 00 00 fa 44 00 
00 04 96 00 00 05 00 00 00 c2 84 00 00 fa 44 00 
00 04 e7 00 00 05 00 00 00 c2 84 00 00 fa 44 00 
00 04 b8 00 00 05 00 00 00 c2 84 00 00 fa 44 00 
00 04 a7 00 00 05 00 00 00 c2 84 00 00 fa 44 00 
00 04 9d 00 00 05 00 00 00 c2 84 00 00 fa 44 00 
00 04 ff 00 00 05 00 00 00 c2 84 00 00 fa 44 00 
00 04 ac 00 00 05 00 00 00 c2 84 00 00 fa 44 00 
00 04 d6 00 00 05 00 00 00 c2 84 00 00 fa 44 00 
00 05 1a 00 00 05 00 00 00 c2 84 00 00 fa 44 00 
00 04 f0 00 00 05 00 00 00 c2 84 00 00 fa 44 00 
00 04 e3 00 00 05 00 00 00 c2 84 00 00 fa 44 00 
00 04 d8 00 00 05 00 00 00 c2 84 00 00 fa 44 00 
00 05 25 00 00 05 00 00 00 c2 84 00 00 fa 44 00 
00 04 f8 00 00 05 00 00 00 c2 84 00 00 fa 44 00 
00 05 38 00 00 05 00 00 00 c2 84 00 00 fa 44 00 
00 05 0b 00 00 05 00 00 00 c2 84 00 00 fa 44 00 
00 05 07 00 00 05 00 00 00 c2 84 00 00 fa 44 00 
00 04 d4 00 00 05 00 00 00 c2 84 00 00 fa 44 00 
00 04 63 00 00 05 00 00 00 c2 84 00 00 fa 44 00 
00 04 a5 00 00 05 00 00 00 c2 84 00 00 fa 44 00 
00 04 6c 00 00 05 00 00 00 c2 84 00 00 fa 44 00 
00 04 79 00 00 05 00 00 00 c2 84 00 00 fa 44 00 
00 04 a1 00 00 05 00 00 00 c2 84 00 00 fa 44 00 
00 04 ac 00 00 05 00 00 00 c2 84 00 00 fa 44 00 
00 04 a7 00 00 05 00 00 00 c2 84 00 00 fa 44 00 
00 04 d8 00 00 05 00 00 00 c2 84 00 00 fa 44 00 
00 04 99 00 00 05 00 00 00 c2 84 00 00 fa 44 00 
00 04 e5 00 00 05 00 00 00 c2 84 00 00 fa 44 00 
00 04 aa 00 00 05 00 00 00 c2 84 00 00 fa 44 00 
00 04 e7 00 00 05 00 00 00 c2 84 00 00 fa 44 00 
00 04 d4 00 00 05 00 00 00 c2 84 00 00 fa 44 00 
00 04 c7 00 00 05 00 00 00 c2 84 00 00 fa 44 00 
00 04 e5 00 00 05 00 00 00 c2 84 00 00 fa 44 00 
00 05 09 00 00 05 00 00 00 c2 84 00 00 fa 44 00 
00 04 e9 00 00 05 00 00 00 c2 84 00 00 fa 44 00 
00 04 d0 00 00 05 00 00 00 c2 84 00 00 fa 44 00 
00 04 f2 00 00 05 00 00 00 c2 84 00 00 fa 44 00 
00 04 e3 00 00 05 00 00 00 c2 84 00 00 fa 44 00 
00 05 38 00 00 05 00 00 00 c2 84 00 00 fa 44 00 
00 04 f0 00 00 05 00 00 00 c2 84 00 00 fa 44 00 
00 04 c5 00 00 05 00 00 00 c2 84 00 00 fa 44 00 
00 04 a1 00 00 05 00 00 00 c2 84 00 00 fa 44 00 
00 05 10 00 00 05 00 00 00 c2 84 00 00 fa 44 00 
00 04 c1 00 00 05 00 00 00 c2 84 00 00 fa 44 00 
00 04 70 00 00 05 00 00 00 c2 84 00 00 fa 44 00 
00 04 9b 00 00 05 00 00 00 c2 84 00 00 fa 44 00 
00 04 bf 00 00 05 00 00 00 c2 84 00 00 fa 44 00 
00 04 b0 00 00 05 00 00 00 c2 84 00 00 fa 44 00 
00 04 50 00 00 05 00 00 00 c2 84 00 00 fa 44 00 
00 04 9f 00 00 05 00 00 00 c2 84 00 00 fa 44 00 
00 04 5f 00 00 05 00 00 00 c2 84 00 00 fa 44 00 
00 04 5b 00 00 05 00 00 00 c2 84 00 00 fa 44 00 
00 04 d4 00 00 05 00 00 00 c2 84 00 00 fa 44 00 
00 05 23 00 00 05 00 00 00 c2 84 00 00 fa 44 00 
00 04 d4 00 00 05 00 00 00 c2 84 00 00 fa 44 00 
00 04 f4 00 00 05 00 00 00 c2 84 00 00 fa 44 00 
00 04 bf 00 00 05 00 00 00 c2 84 00 00 fa 44 00 
00 04 b8 00 00 05 00 00 00 c2 84 00 00 fa 44 00 
00 04 70 00 00 05 00 00 00 c2 84 00 00 fa 44 00 
00 04 74 00 00 05 00 00 00 c2 84 00 00 fa 44 00 
00 04 c3 00 00 05 00 00 00 c2 84 00 00 fa 44 00 
00 04 bf 00 00 05 00 00 00 c2 84 00 00 fa 44 00 
00 04 aa 00 00 05 00 00 00 c2 84 00 00 fa 44 00 
00 04 6a 00 00 05 00 00 00 c2 84 00 00 fa 44 00 
00 04 57 00 00 05 00 00 00 c2 84 00 00 fa 44 00 
00 04 a5 00 00 05 00 00 00 c2 84 00 00 fa 44 00 
00 04 99 00 00 05 00 00 00 c2 84 00 00 fa 44 00 
00 04 9b 00 00 05 00 00 00 c2 84 00 00 fa 44 00 
00 04 d6 00 00 05 00 00 00 c2 84 00 00 fa 44 00 
00 04 f2 00 00 05 00 00 00 c2 84 00 00 fa 44 00 
00 05 4d 00 00 05 00 00 00 c2 84 00 00 fa 44 00 
00 05 21 00 00 05 00 00 00 c2 84 00 00 fa 44 00 
00 05 1e 00 00 05 00 00 00 c2 84 00 00 fa 44 00 
00 04 f6 00 00 05 00 00 00 c2 84 00 00 fa 44 00 
00 04 dd 00 00 05 00 00 00 c2 84 00 00 fa 44 00 
00 04 7f 00 00 05 00 00 00 c2 84 00 00 fa 44 00 
00 04 a1 00 00 05 00 00 00 c2 84 00 00 fa 44 00 
00 04 a5 00 00 05 00 00 00 c2 84 00 00 fa 44 00 
00 04 ae 00 00 05 00 00 00 c2 84 00 00 fa 44 00 
00 05 03 00 00 05 00 00 00 c2 84 00 00 fa 44 00 
00 04 a7 00 00 05 00 00 00 c2 84 00 00 fa 44 00 
00 04 bf 00 00 05 00 00 00 c2 84 00 00 fa 44 00 
00 04 eb 00 00 05 00 00 00 c2 84 00 00 fa 44 00 
00 04 b6 00 00 05 00 00 00 c2 84 00 00 fa 44 00 
00 05 01 00 00 05 00 00 00 c2 84 00 00 fa 44 00 
00 04 dd 00 00 05 00 00 00 c2 84 00 00 fa 44 00 
00 04 9d 00 00 05 00 00 00 c2 84 00 00 fa 44 00 
00 04 5b 00 00 05 00 00 00 c2 84 00 00 fa 44 00 
00 04 50 00 00 05 00 00 00 c2 84 00 00 fa 44 00 
00 04 c9 00 00 05 00 00 00 c2 84 00 00 fa 44 00 
00 04 d0 00 00 05 00 00 00 c2 84 00 00 fa 44 00 
00 04 8e 00 00 05 00 00 00 c2 84 00 00 fa 44 00 
00 04 9d 00 00 05 00 00 00 c2 84 00 00 fa 44 00 
00 04 bd 00 00 05 00 00 00 c2 84 00 00 fa 44 00 
00 04 fc 00 00 05 00 00 00 c2 84 00 00 fa 44 00 
00 04 92 00 00 05 00 00 00 c2 84 00 00 fa 44 00 
00 04 cc 00 00 05 00 00 00 c2 84 00 00 fa 44 00 
00 04 c3 00 00 05 00 00 00 c2 84 00 00 fa 44 00 
00 04 d6 00 00 05 00 00 00 c2 84 00 00 fa 44 00 
00 04 9d 00 00 05 00 00 00 c2 84 00 00 fa 44 00 
00 04 a3 00 00 05 00 00 00 c2 84 00 00 fa 44 00 
00 04 99 00 00 05 00 00 00 c2 84 00 00 fa 44 00 
00 04 a1 00 00 05 00 00 00 c2 84 00 00 fa 44 00 
00 05 05 00 00 05 00 00 00 c2 84 00 00 fa 44 00 
00 04 83 00 00 05 00 00 00 c2 84 00 00 fa 44 00 
00 04 90 00 00 05 00 00 00 c2 84 00 00 fa 44 00 
00 04 3e 00 00 05 00 00 00 c2 84 00 00 fa 44 00 
00 04 7f 00 00 05 00 00 00 c2 84 00 00 fa 44 00 
00 04 6e 00 00 05 00 00 00 c2 84 00 00 fa 44 00 
00 04 50 00 00 05 00 00 00 c2 84 00 00 fa 44 00 
00 04 a1 00 00 05 00 00 00 c2 84 00 00 fa 44 00 
00 04 bd 00 00 05 00 00 00 c2 84 00 00 fa 44 00 
00 04 aa 00 00 05 00 00 00 c2 84 00 00 fa 44 00 
00 04 bb 00 00 05 00 00 00 c2 84 00 00 fa 44 00 
00 04 72 00 00 05 00 00 00 c2 84 00 00 fa 44 00 
00 04 a3 00 00 05 00 00 00 c2 84 00 00 fa 44 00 
00 04 7d 00 00 05 00 00 00 c2 84 00 00 fa 44 00 
00 04 94 00 00 05 00 00 00 c2 84 00 00 fa 44 00 
00 04 7f 00 00 05 00 00 00 c2 84 00 00 fa 44 00 
00 04 59 00 00 05 00 00 00 c2 84 00 00 fa 44 00 
00 04 81 00 00 05 00 00 00 c2 84 00 00 fa 44 00 
00 04 2b 00 00 05 00 00 00 c2 84 00 00 fa 44 00 
00 04 70 00 00 05 00 00 00 c2 84 00 00 fa 44 00 
00 04 55 00 00 05 00 00 00 c2 84 00 00 fa 44 00 
00 04 70 00 00 05 00 00 00 c2 84 00 00 fa 44 00 
00 04 9d 00 00 05 00 00 00 c2 84 00 00 fa 44 00 
00 04 e7 00 00 05 00 00 00 c2 84 00 00 fa 44 00 
00 04 8c 00 00 05 00 00 00 c2 84 00 00 fa 44 00 
00 04 83 00 00 05 00 00 00 c2 84 00 00 fa 44 00 
00 04 c5 00 00 05 00 00 00 c2 84 00 00 fa 44 00 
00 04 c5 00 00 05 00 00 00 c2 84 00 00 fa 44 00 
00 04 ff 00 00 05 00 00 00 c2 84 00 00 fa 44 00 
00 04 a5 00 00 05 00 00 00 c2 84 00 00 fa 44 00 
00 04 df 00 00 05 00 00 00 c2 84 00 00 fa 44 00 
00 04 c3 00 00 05 00 00 00 c2 84 00 00 fa 44 00 
00 04 66 00 00 05 00 00 00 c2 84 00 00 fa 44 00 
00 04 c3 00 00 05 00 00 00 c2 84 00 00 fa 44 00 
00 04 b0 00 00 05 00 00 00 c2 84 00 00 fa 44 00 
00 04 c5 00 00 05 00 00 00 c2 84 00 00 fa 44 00 
00 04 81 00 00 05 00 00 00 c2 84 00 00 fa 44 00 
00 04 d4 00 00 05 00 00 00 c2 84 00 00 fa 44 00 
00 04 9b 00 00 05 00 00 00 c2 84 00 00 fa 44 00 
00 04 b2 00 00 05 00 00 00 c2 84 00 00 fa 44 00 
00 04 dd 00 00 05 00 00 00 c2 84 00 00 fa 44 00 
00 04 ac 00 00 05 00 00 00 c2 84 00 00 fa 44 00 
00 05 05 00 00 05 00 00 00 c2 84 00 00 fa 44 00 
00 04 b6 00 00 05 00 00 00 c2 84 00 00 fa 44 00 
00 05 23 00 00 05 00 00 00 c2 84 00 00 fa 44 00 
00 04 d2 00 00 05 00 00 00 c2 84 00 00 fa 44 00 
00 04 c9 00 00 05 00 00 00 c2 84 00 00 fa 44 00 
00 04 81 00 00 05 00 00 00 c2 84 00 00 fa 44 00 
00 04 92 00 00 05 00 00 00 c2 84 00 00 fa 44 00 
00 04 aa 00 00 05 00 00 00 c2 84 00 00 fa 44 00 
00 04 fa 00 00 05 00 00 00 c2 84 00 00 fa 44 00 
00 04 c3 00 00 05 00 00 00 c2 84 00 00 fa 44 00 
00 04 9f 00 00 05 00 00 00 c2 84 00 00 fa 44 00 
00 04 b6 00 00 05 00 00 00 c2 84 00 00 fa 44 00 
00 04 e5 00 00 05 00 00 00 c2 84 00 00 fa 44 00 
00 04 83 00 00 05 00 00 00 c2 84 00 00 fa 44 00 
00 04 b4 00 00 05 00 00 00 c2 84 00 00 fa 44 00 
00 04 96 00 00 05 00 00 00 c2 84 00 00 fa 44 00 
00 04 9f 00 00 05 00 00 00 c2 84 00 00 fa 44 00 
00 04 4a 00 00 05 00 00 00 c2 84 00 00 fa 44 00 
00 04 aa 00 00 05 00 00 00 c2 84 00 00 fa 44 00 
00 04 aa 00 00 05 00 00 00 c2 84 00 00 fa 44 00 
00 04 a3 00 00 05 00 00 00 c2 84 00 00 fa 44 00 
00 04 ae 00 00 05 00 00 00 c2 84 00 00 fa 44 00 
00 04 f4 00 00 05 00 00 00 c2 84 00 00 fa 44 00 
00 05 23 00 00 05 00 00 00 c2 84 00 00 fa 44 00 
00 04 cc 00 00 05 00 00 00 c2 84 00 00 fa 44 00 
00 04 8c 00 00 05 00 00 00 c2 84 00 00 fa 44 00 
00 04 bb 00 00 05 00 00 00 c2 84 00 00 fa 44 00 
00 04 c5 00 00 05 00 00 00 c2 84 00 00 fa 44 00 
00 04 96 00 00 05 00 00 00 c2 84 00 00 fa 44 00 
00 04 e9 00 00 05 00 00 00 c2 84 00 00 fa 44 00 
00 04 c9 00 00 05 00 00 00 c2 84 00 00 fa 44 00 
00 05 12 00 00 05 00 00 00 c2 84 00 00 fa 44 00 
00 04 7b 00 00 05 00 00 00 c2 84 00 00 fa 44 00 
00 04 83 00 00 05 00 00 00 c2 84 00 00 fa 44 00 
00 04 bd 00 00 05 00 00 00 c2 84 00 00 fa 44 00 
00 04 81 00 00 05 00 00 00 c2 84 00 00 fa 44 00 
00 04 ee 00 00 05 00 00 00 c2 84 00 00 fa 44 00 
00 04 b4 00 00 05 00 00 00 c2 84 00 00 fa 44 00 
00 04 96 00 00 05 00 00 00 c2 84 00 00 fa 44 00 
00 04 a3 00 00 05 00 00 00 c2 84 00 00 fa 44 00 
00 04 68 00 00 05 00 00 00 c2 84 00 00 fa 44 00 
00 04 90 00 00 05 00 00 00 c2 84 00 00 fa 44 00 
00 04 81 00 00 05 00 00 00 c2 84 00 00 fa 44 00 
00 04 94 00 00 05 00 00 00 c2 84 00 00 fa 44 00 
00 04 d6 00 00 05 00 00 00 c2 84 00 00 fa 44 00 
00 04 df 00 00 05 00 00 00 c2 84 00 00 fa 44 00 
00 04 df 00 00 05 00 00 00 c2 84 00 00 fa 44 00 
00 04 92 00 00 05 00 00 00 c2 84 00 00 fa 44 00 
00 04 8a 00 00 05 00 00 00 c2 84 00 00 fa 44 00 
00 04 da 00 00 05 00 00 00 c2 84 00 00 fa 44 00 
00 04 b6 00 00 05 00 00 00 c2 84 00 00 fa 44 00 
00 04 c9 00 00 05 00 00 00 c2 84 00 00 fa 44 00 
00 04 b4 00 00 05 00 00 00 c2 84 00 00 fa 44 00 
00 04 c9 00 00 05 00 00 00 c2 84 00 00 fa 44 00 
00 04 dd 00 00 05 00 00 00 c2 84 00 00 fa 44 00 
00 04 96 00 00 05 00 00 00 c2 84 00 00 fa 44 00 
00 04 c7 00 00 05 00 00 00 c2 84 00 00 fa 44 00 
00 04 e3 00 00 05 00 00 00 c2 84 00 00 fa 44 00 
00 04 df 00 00 05 00 00 00 c2 84 00 00 fa 44 00 
00 04 fc 00 00 05 00 00 00 c2 84 00 00 fa 44 00 
00 04 b6 00 00 05 00 00 00 c2 84 00 00 fa 44 00 
00 04 bd 00 00 05 00 00 00 c2 84 00 00 fa 44 00 
00 05 43 00 00 05 00 00 00 c2 84 00 00 fa 44 00 
00 04 f6 00 00 05 00 00 00 c2 84 00 00 fa 44 00 
00 05 18 00 00 05 00 00 00 c2 84 00 00 fa 44 00 
00 04 df 00 00 05 00 00 00 c2 84 00 00 fa 44 00 
00 04 fa 00 00 05 00 00 00 c2 84 00 00 fa 44 00 
00 04 b6 00 00 05 00 00 00 c2 84 00 00 fa 44 00 
00 04 ee 00 00 05 00 00 00 c2 84 00 00 fa 44 00 
00 04 ff 00 00 05 00 00 00 c2 84 00 00 fa 44 00 
00 04 df 00 00 05 00 00 00 c2 84 00 00 fa 44 00 
00 04 66 00 00 05 00 00 00 c2 84 00 00 fa 44 00 
00 04 b6 00 00 05 00 00 00 c2 84 00 00 fa 44 00 
00 05 16 00 00 05 00 00 00 c2 84 00 00 fa 44 00 
00 04 f2 00 00 05 00 00 00 c2 84 00 00 fa 44 00 
00 05 18 00 00 05 00 00 00 c2 84 00 00 fa 44 00 
00 05 1e 00 00 05 00 00 00 c2 84 00 00 fa 44 00 
00 05 21 00 00 05 00 00 00 c2 84 00 00 fa 44 00 
00 05 18 00 00 05 00 00 00 c2 84 00 00 fa 44 00 
00 04 fc 00 00 05 00 00 00 c2 84 00 00 fa 44 00 
00 04 da 00 00 05 00 00 00 c2 84 00 00 fa 44 00 
00 05 3e 00 00 05 00 00 00 c2 84 00 00 fa 44 00 
00 04 f4 00 00 05 00 00 00 c2 84 00 00 fa 44 00 
00 04 83 00 00 05 00 00 00 c2 84 00 00 fa 44 00 
00 04 a7 00 00 05 00 00 00 c2 84 00 00 fa 44 00 
00 04 a7 00 00 05 00 00 00 c2 84 00 00 fa 44 00 
00 04 c7 00 00 05 00 00 00 c2 84 00 00 fa 44 00 
00 04 ee 00 00 05 00 00 00 c2 84 00 00 fa 44 00 
00 04 c7 00 00 05 00 00 00 c2 84 00 00 fa 44 00 
00 05 10 00 00 05 00 00 00 c2 84 00 00 fa 44 00 
00 05 09 00 00 00 00 00 00 fa 44 00 00 05 00 00 
00 04 a5 00 00 05 00 00 00 00 00 00 00 fa 44 00 
00 05 45 00 00 05 00 00 00 00 00 00 00 fa 44 00 
00 04 d0 00 00 05 00 00 00 00 00 00 00 fa 44 00 
00 05 21 00 00 05 00 00 00 00 00 00 00 fa 44 00 
00 05 2b 00 00 05 00 00 00 00 00 00 00 fa 44 00 
00 05 2b 00 00 05 00 00 00 00 00 00 00 fa 44 00 
00 04 f0 00 00 05 00 00 00 00 00 00 00 fa 44 00 
00 04 eb 00 00 05 00 00 00 00 00 00 00 fa 44 00 
00 04 b0 00 00 05 00 00 00 00 00 00 00 fa 44 00 
00 04 88 00 00 05 00 00 00 00 00 00 00 fa 44 00 
00 04 7d 00 00 05 00 00 00 00 00 00 00 fa 44 00 
00 04 6c 00 00 05 00 00 00 00 00 00 00 fa 44 00 
00 04 68 00 00 05 00 00 00 00 00 00 00 fa 44 00 
00 04 d4 00 00 05 00 00 00 00 00 00 00 fa 44 00 
00 04 88 00 00 05 00 00 00 00 00 00 00 fa 44 00 
00 04 b0 00 00 05 00 00 00 00 00 00 00 fa 44 00 
00 04 d0 00 00 05 00 00 00 00 00 00 00 fa 44 00 
00 04 b0 00 00 05 00 00 00 00 00 00 00 fa 44 00 
00 04 7d 00 00 05 00 00 00 00 00 00 00 fa 44 00 
00 05 05 00 00 05 00 00 00 00 00 00 00 fa 44 00 
00 04 e5 00 00 05 00 00 00 00 00 00 00 fa 44 00 
00 05 18 00 00 05 00 00 00 00 00 00 00 fa 44 00 
00 04 9d 00 00 05 00 00 00 00 00 00 00 fa 44 00 
00 04 e7 00 00 05 00 00 00 00 00 00 00 fa 44 00 
00 04 bf 00 00 05 00 00 00 00 00 00 00 fa 44 00 
00 04 ee 00 00 05 00 00 00 00 00 00 00 fa 44 00 
00 04 d0 00 00 05 00 00 00 00 00 00 00 fa 44 00 
00 04 e9 00 00 05 00 00 00 00 00 00 00 fa 44 00 
00 04 c5 00 00 05 00 00 00 00 00 00 00 fa 44 00 
00 04 d4 00 00 05 00 00 00 00 00 00 00 fa 44 00 
00 04 c1 00 00 05 00 00 00 00 00 00 00 fa 44 00 
00 04 8c 00 00 05 00 00 00 00 00 00 00 fa 44 00 
00 04 74 00 00 05 00 00 00 00 00 00 00 fa 44 00 
00 04 ae 00 00 05 00 00 00 00 00 00 00 fa 44 00 
00 04 f2 00 00 05 00 00 00 00 00 00 00 fa 44 00 
00 04 bb 00 00 05 00 00 00 00 00 00 00 fa 44 00 
00 04 bf 00 00 05 00 00 00 00 00 00 00 fa 44 00 
00 04 cc 00 00 05 00 00 00 00 00 00 00 fa 44 00 
00 04 6c 00 00 05 00 00 00 00 00 00 00 fa 44 00 
00 04 94 00 00 05 00 00 00 00 00 00 00 fa 44 00 
00 05 3c 00 00 05 00 00 00 00 00 00 00 fa 44 00 
00 04 bd 00 00 05 00 00 00 00 00 00 00 fa 44 00 
00 04 b2 00 00 05 00 00 00 00 00 00 00 fa 44 00 
00 04 66 00 00 05 00 00 00 00 00 00 00 fa 44 00 
00 04 92 00 00 05 00 00 00 00 00 00 00 fa 44 00 
00 04 c9 00 00 05 00 00 00 00 00 00 00 fa 44 00 
00 04 e3 00 00 05 00 00 00 00 00 00 00 fa 44 00 
00 04 7d 00 00 05 00 00 00 00 00 00 00 fa 44 00 
00 04 c7 00 00 05 00 00 00 00 00 00 00 fa 44 00 
00 04 b0 00 00 05 00 00 00 00 00 00 00 fa 44 00 
00 04 46 00 00 05 00 00 00 00 00 00 00 fa 44 00 
00 04 b8 00 00 05 00 00 00 00 00 00 00 fa 44 00 
00 04 b8 00 00 05 00 00 00 00 00 00 00 fa 44 00 
00 04 9b 00 00 05 00 00 00 00 00 00 00 fa 44 00 
00 04 a3 00 00 05 00 00 00 00 00 00 00 fa 44 00 
00 04 99 00 00 05 00 00 00 00 00 00 00 fa 44 00 
00 05 03 00 00 05 00 00 00 00 00 00 00 fa 44 00 
00 04 bd 00 00 05 00 00 00 00 00 00 00 fa 44 00 
00 05 14 00 00 05 00 00 00 00 00 00 00 fa 44 00 
00 05 09 00 00 05 00 00 00 00 00 00 00 fa 44 00 
00 04 fa 00 00 05 00 00 00 00 00 00 00 fa 44 00 
00 04 dd 00 00 05 00 00 00 00 00 00 00 fa 44 00 
00 04 c5 00 00 05 00 00 00 00 00 00 00 fa 44 00 
00 04 c9 00 00 05 00 00 00 00 00 00 00 fa 44 00 
00 04 85 00 00 05 00 00 00 00 00 00 00 fa 44 00 
00 04 bb 00 00 05 00 00 00 00 00 00 00 fa 44 00 
00 04 8e 00 00 05 00 00 00 00 00 00 00 fa 44 00 
00 04 e9 00 00 05 00 00 00 00 00 00 00 fa 44 00 
00 04 e1 00 00 05 00 00 00 00 00 00 00 fa 44 00 
00 04 d4 00 00 05 00 00 00 00 00 00 00 fa 44 00 
00 04 85 00 00 05 00 00 00 00 00 00 00 fa 44 00 
00 04 8a 00 00 05 00 00 00 00 00 00 00 fa 44 00 
00 04 27 00 00 05 00 00 00 00 00 00 00 fa 44 00 
00 04 63 00 00 05 00 00 00 00 00 00 00 fa 44 00 
00 04 34 00 00 05 00 00 00 00 00 00 00 fa 44 00 
00 04 85 00 00 05 00 00 00 00 00 00 00 fa 44 00 
00 04 ac 00 00 05 00 00 00 00 00 00 00 fa 44 00 
00 04 5f 00 00 05 00 00 00 00 00 00 00 fa 44 00 
00 04 a7 00 00 05 00 00 00 00 00 00 00 fa 44 00 
00 04 9d 00 00 05 00 00 00 00 00 00 00 fa 44 00 
00 04 dd 00 00 05 00 00 00 00 00 00 00 fa 44 00 
00 04 f6 00 00 05 00 00 00 00 00 00 00 fa 44 00 
00 04 b2 00 00 05 00 00 00 00 00 00 00 fa 44 00 
00 04 f4 00 00 05 00 00 00 00 00 00 00 fa 44 00 
00 04 99 00 00 05 00 00 00 00 00 00 00 fa 44 00 
00 04 66 00 00 05 00 00 00 00 00 00 00 fa 44 00 
00 04 8a 00 00 05 00 00 00 00 00 00 00 fa 44 00 
00 04 90 00 00 05 00 00 00 00 00 00 00 fa 44 00 
00 04 83 00 00 05 00 00 00 00 00 00 00 fa 44 00 
00 04 55 00 00 05 00 00 00 00 00 00 00 fa 44 00 
00 04 94 00 00 05 00 00 00 00 00 00 00 fa 44 00 
00 04 61 00 00 05 00 00 00 00 00 00 00 fa 44 00 
00 04 8e 00 00 05 00 00 00 00 00 00 00 fa 44 00 
00 04 c3 00 00 05 00 00 00 00 00 00 00 fa 44 00 
00 04 bf 00 00 05 00 00 00 00 00 00 00 fa 44 00 
00 04 5b 00 00 05 00 00 00 00 00 00 00 fa 44 00 
00 04 5d 00 00 05 00 00 00 00 00 00 00 fa 44 00 
00 04 90 00 00 05 00 00 00 00 00 00 00 fa 44 00 
00 04 ee 00 00 05 00 00 00 00 00 00 00 fa 44 00 
00 04 8c 00 00 05 00 00 00 00 00 00 00 fa 44 00 
00 04 e1 00 00 05 00 00 00 00 00 00 00 fa 44 00 
00 04 bf 00 00 05 00 00 00 00 00 00 00 fa 44 00 
00 04 e1 00 00 05 00 00 00 00 00 00 00 fa 44 00 
00 05 43 00 00 05 00 00 00 00 00 00 00 fa 44 00 
00 04 f4 00 00 05 00 00 00 00 00 00 00 fa 44 00 
00 05 16 00 00 05 00 00 00 00 00 00 00 fa 44 00 
00 04 ee 00 00 05 00 00 00 00 00 00 00 fa 44 00 
00 04 f0 00 00 05 00 00 00 00 00 00 00 fa 44 00 
00 05 47 00 00 05 00 00 00 00 00 00 00 fa 44 00 
00 05 47 00 00 05 00 00 00 00 00 00 00 fa 44 00 
00 04 eb 00 00 05 00 00 00 00 00 00 00 fa 44 00 
00 04 e1 00 00 05 00 00 00 00 00 00 00 fa 44 00 
00 04 e1 00 00 05 00 00 00 00 00 00 00 fa 44 00 
00 04 d8 00 00 05 00 00 00 00 00 00 00 fa 44 00 
00 04 c5 00 00 05 00 00 00 00 00 00 00 fa 44 00 
00 04 d2 00 00 05 00 00 00 00 00 00 00 fa 44 00 
00 04 bb 00 00 05 00 00 00 00 00 00 00 fa 44 00 
00 04 8e 00 00 05 00 00 00 00 00 00 00 fa 44 00 
00 04 e7 00 00 05 00 00 00 00 00 00 00 fa 44 00 
00 05 25 00 00 05 00 00 00 00 00 00 00 fa 44 00 
00 04 fa 00 00 05 00 00 00 00 00 00 00 fa 44 00 
00 04 ee 00 00 05 00 00 00 00 00 00 00 fa 44 00 
00 04 92 00 00 05 00 00 00 00 00 00 00 fa 44 00 
00 04 d2 00 00 05 00 00 00 00 00 00 00 fa 44 00 
00 04 ee 00 00 05 00 00 00 00 00 00 00 fa 44 00 
00 05 25 00 00 05 00 00 00 00 00 00 00 fa 44 00 
00 04 92 00 00 05 00 00 00 00 00 00 00 fa 44 00 
00 04 bf 00 00 05 00 00 00 00 00 00 00 fa 44 00 
00 04 a3 00 00 05 00 00 00 00 00 00 00 fa 44 00 
00 05 07 00 00 05 00 00 00 00 00 00 00 fa 44 00 
00 05 07 00 00 05 00 00 00 00 00 00 00 fa 44 00 
00 05 2f 00 00 05 00 00 00 00 00 00 00 fa 44 00 
00 05 55 00 00 05 00 00 00 00 00 00 00 fa 44 00 
00 05 3a 00 00 05 00 00 00 00 00 00 00 fa 44 00 
00 04 f6 00 00 05 00 00 00 00 00 00 00 fa 44 00 
00 04 c3 00 00 05 00 00 00 00 00 00 00 fa 44 00 
00 04 ce 00 00 05 00 00 00 00 00 00 00 fa 44 00 
00 04 f4 00 00 05 00 00 00 00 00 00 00 fa 44 00 
00 04 e1 00 00 05 00 00 00 00 00 00 00 fa 44 00 
00 04 aa 00 00 05 00 00 00 00 00 00 00 fa 44 00 
00 04 7f 00 00 05 00 00 00 00 00 00 00 fa 44 00 
00 04 c7 00 00 05 00 00 00 00 00 00 00 fa 44 00 
00 04 ae 00 00 05 00 00 00 00 00 00 00 fa 44 00 
00 04 9f 00 00 05 00 00 00 00 00 00 00 fa 44 00 
00 04 c3 00 00 05 00 00 00 00 00 00 00 fa 44 00 
00 04 c3 00 00 05 00 00 00 00 00 00 00 fa 44 00 
00 04 bf 00 00 05 00 00 00 00 00 00 00 fa 44 00 
00 04 96 00 00 05 00 00 00 00 00 00 00 fa 44 00 
00 04 9b 00 00 05 00 00 00 00 00 00 00 fa 44 00 
00 04 38 00 00 05 00 00 00 00 00 00 00 fa 44 00 
00 04 9f 00 00 05 00 00 00 00 00 00 00 fa 44 00 
00 04 bd 00 00 05 00 00 00 00 00 00 00 fa 44 00 
00 04 bd 00 00 05 00 00 00 00 00 00 00 fa 44 00 
00 04 8a 00 00 05 00 00 00 00 00 00 00 fa 44 00 
00 04 e3 00 00 05 00 00 00 00 00 00 00 fa 44 00 
00 04 f8 00 00 05 00 00 00 00 00 00 00 fa 44 00 
00 04 bd 00 00 05 00 00 00 00 00 00 00 fa 44 00 
00 04 ac 00 00 05 00 00 00 00 00 00 00 fa 44 00 
00 04 94 00 00 05 00 00 00 00 00 00 00 fa 44 00 
00 04 63 00 00 05 00 00 00 00 00 00 00 fa 44 00 
00 04 34 00 00 05 00 00 00 00 00 00 00 fa 44 00 
00 04 5b 00 00 05 00 00 00 00 00 00 00 fa 44 00 
00 04 e5 00 00 05 00 00 00 00 00 00 00 fa 44 00 
00 04 ae 00 00 05 00 00 00 00 00 00 00 fa 44 00 
00 04 4a 00 00 05 00 00 00 00 00 00 00 fa 44 00 
00 04 57 00 00 05 00 00 00 00 00 00 00 fa 44 00 
00 04 a7 00 00 05 00 00 00 00 00 00 00 fa 44 00 
00 05 0b 00 00 05 00 00 00 00 00 00 00 fa 44 00 
00 04 8c 00 00 05 00 00 00 00 00 00 00 fa 44 00 
00 04 a7 00 00 05 00 00 00 00 00 00 00 fa 44 00 
00 04 d8 00 00 05 00 00 00 00 00 00 00 fa 44 00 
00 05 09 00 00 05 00 00 00 00 00 00 00 fa 44 00 
00 04 ae 00 00 05 00 00 00 00 00 00 00 fa 44 00 
00 05 3c 00 00 05 00 00 00 00 00 00 00 fa 44 00 
00 04 fc 00 00 05 00 00 00 00 00 00 00 fa 44 00 
00 04 b2 00 00 05 00 00 00 00 00 00 00 fa 44 00 
00 04 c3 00 00 05 00 00 00 00 00 00 00 fa 44 00 
00 04 ae 00 00 05 00 00 00 00 00 00 00 fa 44 00 
00 04 a7 00 00 05 00 00 00 00 00 00 00 fa 44 00 
00 04 ae 00 00 05 00 00 00 00 00 00 00 fa 44 00 
00 04 79 00 00 05 00 00 00 00 00 00 00 fa 44 00 
00 04 b2 00 00 05 00 00 00 00 00 00 00 fa 44 00 
00 04 a7 00 00 05 00 00 00 00 00 00 00 fa 44 00 
00 04 9b 00 00 05 00 00 00 00 00 00 00 fa 44 00 
00 04 ce 00 00 05 00 00 00 00 00 00 00 fa 44 00 
00 04 e5 00 00 05 00 00 00 00 00 00 00 fa 44 00 
00 04 5f 00 00 05 00 00 00 00 00 00 00 fa 44 00 
00 04 8a 00 00 05 00 00 00 00 00 00 00 fa 44 00 
00 04 7f 00 00 05 00 00 00 00 00 00 00 fa 44 00 
00 04 d0 00 00 05 00 00 00 00 00 00 00 fa 44 00 
00 04 88 00 00 05 00 00 00 00 00 00 00 fa 44 00 
00 04 b2 00 00 05 00 00 00 00 00 00 00 fa 44 00 
00 04 ae 00 00 05 00 00 00 00 00 00 00 fa 44 00 
00 04 79 00 00 05 00 00 00 00 00 00 00 fa 44 00 
00 04 1e 00 00 05 00 00 00 00 00 00 00 fa 44 00 
00 04 9d 00 00 05 00 00 00 00 00 00 00 fa 44 00 
00 04 85 00 00 05 00 00 00 00 00 00 00 fa 44 00 
00 04 d6 00 00 05 00 00 00 00 00 00 00 fa 44 00 
00 04 72 00 00 05 00 00 00 00 00 00 00 fa 44 00 
00 04 a3 00 00 05 00 00 00 00 00 00 00 fa 44 00 
00 04 d6 00 00 05 00 00 00 00 00 00 00 fa 44 00 
00 04 c3 00 00 05 00 00 00 00 00 00 00 fa 44 00 
00 04 90 00 00 05 00 00 00 00 00 00 00 fa 44 00 
00 04 6a 00 00 05 00 00 00 00 00 00 00 fa 44 00 
00 04 dd 00 00 05 00 00 00 00 00 00 00 fa 44 00 
00 04 d2 00 00 05 00 00 00 00 00 00 00 fa 44 00 
00 05 1a 00 00 05 00 00 00 00 00 00 00 fa 44 00 
00 04 f0 00 00 05 00 00 00 00 00 00 00 fa 44 00 
00 04 da 00 00 05 00 00 00 00 00 00 00 fa 44 00 
00 04 f4 00 00 05 00 00 00 00 00 00 00 fa 44 00 
00 04 c3 00 00 05 00 00 00 00 00 00 00 fa 44 00 
00 04 c9 00 00 05 00 00 00 00 00 00 00 fa 44 00 
00 04 e3 00 00 05 00 00 00 00 00 00 00 fa 44 00 
00 04 dd 00 00 05 00 00 00 00 00 00 00 fa 44 00 
00 04 ff 00 00 05 00 00 00 00 00 00 00 fa 44 00 
00 04 f0 00 00 05 00 00 00 00 00 00 00 fa 44 00 
00 04 d8 00 00 05 00 00 00 00 00 00 00 fa 44 00 
00 04 f6 00 00 05 00 00 00 00 00 00 00 fa 44 00 
00 04 d6 00 00 05 00 00 00 00 00 00 00 fa 44 00 
00 04 f2 00 00 05 00 00 00 00 00 00 00 fa 44 00 
00 04 cc 00 00 05 00 00 00 00 00 00 00 fa 44 00 
00 04 f8 00 00 05 00 00 00 00 00 00 00 fa 44 00 
00 04 f6 00 00 05 00 00 00 00 00 00 00 fa 44 00 
00 04 d8 00 00 05 00 00 00 00 00 00 00 fa 44 00 
00 05 07 00 00 05 00 00 00 00 00 00 00 fa 44 00 
00 04 df 00 00 05 00 00 00 00 00 00 00 fa 44 00 
00 04 a3 00 00 05 00 00 00 00 00 00 00 fa 44 00 
00 04 77 00 00 05 00 00 00 00 00 00 00 fa 44 00 
00 04 66 00 00 05 00 00 00 00 00 00 00 fa 44 00 
00 04 aa 00 00 05 00 00 00 00 00 00 00 fa 44 00 
00 04 94 00 00 05 00 00 00 00 00 00 00 fa 44 00 
00 04 ae 00 00 05 00 00 00 00 00 00 00 fa 44 00 
00 04 b4 00 00 05 00 00 00 00 00 00 00 fa 44 00 
00 04 d0 00 00 05 00 00 00 00 00 00 00 fa 44 00 
00 04 c9 00 00 05 00 00 00 00 00 00 00 fa 44 00 
00 04 ee 00 00 05 00 00 00 00 00 00 00 fa 44 00 
00 04 e7 00 00 05 00 00 00 00 00 00 00 fa 44 00 
00 04 e3 00 00 05 00 00 00 00 00 00 00 fa 44 00 
00 04 d4 00 00 05 00 00 00 00 00 00 00 fa 44 00 
00 04 e5 00 00 05 00 00 00 00 00 00 00 fa 44 00 
00 04 c9 00 00 05 00 00 00 00 00 00 00 fa 44 00 
00 05 0d 00 00 05 00 00 00 00 00 00 00 fa 44 00 
00 05 3c 00 00 05 00 00 00 00 00 00 00 fa 44 00 
00 05 49 00 00 05 00 00 00 00 00 00 00 fa 44 00 
00 05 63 00 00 05 00 00 00 00 00 00 00 fa 44 00 
00 05 66 00 00 05 00 00 00 00 00 00 00 fa 44 00 
00 05 68 00 00 05 00 00 00 00 00 00 00 fa 44 00 
00 05 5b 00 00 05 00 00 00 00 00 00 00 fa 44 00 
00 05 47 00 00 05 00 00 00 00 00 00 00 fa 44 00 
00 05 47 00 00 05 00 00 00 00 00 00 00 fa 44 00 
00 05 3a 00 00 05 00 00 00 00 00 00 00 fa 44 00 
00 04 fa 00 00 05 00 00 00 00 00 00 00 fa 44 00 
00 05 23 00 00 05 00 00 00 00 00 00 00 fa 44 00 
00 05 07 00 00 05 00 00 00 00 00 00 00 fa 44 00 
00 04 94 00 00 05 00 00 00 00 00 00 00 fa 44 00 
00 04 b4 00 00 05 00 00 00 00 00 00 00 fa 44 00 
00 04 b6 00 00 05 00 00 00 00 00 00 00 fa 44 00 
00 05 0d 00 00 05 00 00 00 00 00 00 00 fa 44 00 
00 04 dd 00 00 05 00 00 00 00 00 00 00 fa 44 00 
00 05 01 00 00 05 00 00 00 00 00 00 00 fa 44 00 
00 04 c1 00 00 05 00 00 00 00 00 00 00 fa 44 00 
00 04 9b 00 00 05 00 00 00 00 00 00 00 fa 44 00 
00 05 32 00 00 05 00 00 00 00 00 00 00 fa 44 00 
00 04 d8 00 00 05 00 00 00 00 00 00 00 fa 44 00 
00 04 ff 00 00 05 00 00 00 00 00 00 00 fa 44 00 
00 05 32 00 00 05 00 00 00 00 00 00 00 fa 44 00 
00 05 3a 00 00 05 00 00 00 00 00 00 00 fa 44 00 
00 05 03 00 00 05 00 00 00 00 00 00 00 fa 44 00 
00 05 10 00 00 05 00 00 00 00 00 00 00 fa 44 00 
00 05 01 00 00 05 00 00 00 00 00 00 00 fa 44 00 
00 05 01 00 00 05 00 00 00 00 00 00 00 fa 44 00 
00 05 1e 00 00 05 00 00 00 00 00 00 00 fa 44 00 
00 04 ff 00 00 05 00 00 00 00 00 00 00 fa 44 00 
00 05 2d 00 00 05 00 00 00 00 00 00 00 fa 44 00 
00 04 ff 00 00 05 00 00 00 00 00 00 00 fa 44 00 
00 04 e9 00 00 05 00 00 00 00 00 00 00 fa 44 00 
00 04 b0 00 00 05 00 00 00 00 00 00 00 fa 44 00 
00 05 25 00 00 05 00 00 00 00 00 00 00 fa 44 00 
00 04 a7 00 00 05 00 00 00 00 00 00 00 fa 44 00 
00 04 99 00 00 05 00 00 00 00 00 00 00 fa 44 00 
00 04 ee 00 00 05 00 00 00 00 00 00 00 fa 44 00 
00 04 85 00 00 05 00 00 00 00 00 00 00 fa 44 00 
00 04 aa 00 00 05 00 00 00 00 00 00 00 fa 44 00 
00 04 8a 00 00 05 00 00 00 00 00 00 00 fa 44 00 
00 04 61 00 00 05 00 00 00 00 00 00 00 fa 44 00 
00 04 85 00 00 05 00 00 00 00 00 00 00 fa 44 00 
00 04 bf 00 00 05 00 00 00 00 00 00 00 fa 44 00 
00 04 e7 00 00 05 00 00 00 00 00 00 00 fa 44 00 
00 05 09 00 00 05 00 00 00 00 00 00 00 fa 44 00 
00 04 f2 00 00 05 00 00 00 00 00 00 00 fa 44 00 
00 04 f4 00 00 05 00 00 00 00 00 00 00 fa 44 00 
00 04 e3 00 00 05 00 00 00 00 00 00 00 fa 44 00 
00 04 d6 00 00 05 00 00 00 00 00 00 00 fa 44 00 
00 05 16 00 00 05 00 00 00 00 00 00 00 fa 44 00 
00 05 05 00 00 05 00 00 00 00 00 00 00 fa 44 00 
00 04 d4 00 00 05 00 00 00 00 00 00 00 fa 44 00 
00 04 d2 00 00 05 00 00 00 00 00 00 00 fa 44 00 
00 04 ee 00 00 05 00 00 00 00 00 00 00 fa 44 00 
00 04 ff 00 00 05 00 00 00 00 00 00 00 fa 44 00 
00 04 f2 00 00 05 00 00 00 00 00 00 00 fa 44 00 
00 05 0d 00 00 05 00 00 00 00 00 00 00 fa 44 00 
00 05 2d 00 00 05 00 00 00 00 00 00 00 fa 44 00 
00 05 05 00 00 05 00 00 00 00 00 00 00 fa 44 00 
00 05 18 00 00 05 00 00 00 00 00 00 00 fa 44 00 
00 04 bb 00 00 05 00 00 00 00 00 00 00 fa 44 00 
00 04 90 00 00 05 00 00 00 00 00 00 00 fa 44 00 
00 05 0b 00 00 05 00 00 00 00 00 00 00 fa 44 00 
00 04 90 00 00 05 00 00 00 00 00 00 00 fa 44 00 
00 05 1e 00 00 05 00 00 00 00 00 00 00 fa 44 00 
00 04 e7 00 00 05 00 00 00 00 00 00 00 fa 44 00 
00 04 bd 00 00 05 00 00 00 00 00 00 00 fa 44 00 
00 04 b2 00 00 05 00 00 00 00 00 00 00 fa 44 00 
00 05 1e 00 00 05 00 00 00 00 00 00 00 fa 44 00 
00 04 f4 00 00 05 00 00 00 00 00 00 00 fa 44 00 
00 04 ce 00 00 05 00 00 00 00 00 00 00 fa 44 00 
00 05 66 00 00 05 00 00 00 00 00 00 00 fa 44 00 
00 04 fa 00 00 05 00 00 00 00 00 00 00 fa 44 00 
00 05 07 00 00 05 00 00 00 00 00 00 00 fa 44 00 
00 04 e7 00 00 05 00 00 00 00 00 00 00 fa 44 00 
00 04 f0 00 00 05 00 00 00 00 00 00 00 fa 44 00 
00 04 e1 00 00 05 00 00 00 00 00 00 00 fa 44 00 
00 04 f4 00 00 05 00 00 00 00 00 00 00 fa 44 00 
00 04 79 00 00 05 00 00 00 00 00 00 00 fa 44 00 
00 04 bf 00 00 05 00 00 00 00 00 00 00 fa 44 00 
00 04 c9 00 00 05 00 00 00 00 00 00 00 fa 44 00 
00 05 12 00 00 05 00 00 00 00 00 00 00 fa 44 00 
00 05 2d 00 00 05 00 00 00 00 00 00 00 fa 44 00 
00 05 2f 00 00 05 00 00 00 00 00 00 00 fa 44 00 
00 05 1c 00 00 05 00 00 00 00 00 00 00 fa 44 00 
00 04 fa 00 00 05 00 00 00 00 00 00 00 fa 44 00 
00 05 2f 00 00 05 00 00 00 00 00 00 00 fa 44 00 
00 05 16 00 00 05 00 00 00 00 00 00 00 fa 44 00 
00 05 0d 00 00 05 00 00 00 00 00 00 00 fa 44 00 
00 04 f4 00 00 05 00 00 00 00 00 00 00 fa 44 00 
00 05 01 00 00 05 00 00 00 00 00 00 00 fa 44 00 
00 04 9f 00 00 05 00 00 00 00 00 00 00 fa 44 00 
00 04 8e 00 00 05 00 00 00 00 00 00 00 fa 44 00 
00 04 b8 00 00 05 00 00 00 00 00 00 00 fa 44 00 
00 04 81 00 00 05 00 00 00 00 00 00 00 fa 44 00 
00 04 92 00 00 05 00 00 00 00 00 00 00 fa 44 00 
00 04 c7 00 00 05 00 00 00 00 00 00 00 fa 44 00 
00 04 c1 00 00 05 00 00 00 00 00 00 00 fa 44 00 
00 04 f2 00 00 05 00 00 00 00 00 00 00 fa 44 00 
00 04 df 00 00 05 00 00 00 00 00 00 00 fa 44 00 
00 04 f8 00 00 05 00 00 00 00 00 00 00 fa 44 00 
00 04 e5 00 00 05 00 00 00 00 00 00 00 fa 44 00 
00 04 e1 00 00 05 00 00 00 00 00 00 00 fa 44 00 
00 04 e9 00 00 05 00 00 00 00 00 00 00 fa 44 00 
00 04 a5 00 00 05 00 00 00 00 00 00 00 fa 44 00 
00 04 df 00 00 05 00 00 00 00 00 00 00 fa 44 00 
00 04 aa 00 00 05 00 00 00 00 00 00 00 fa 44 00 
00 05 0d 00 00 05 00 00 00 00 00 00 00 fa 44 00 
00 05 12 00 00 05 00 00 00 00 00 00 00 fa 44 00 
00 04 96 00 00 05 00 00 00 00 00 00 00 fa 44 00 
00 04 bd 00 00 05 00 00 00 00 00 00 00 fa 44 00 
00 04 fa 00 00 05 00 00 00 00 00 00 00 fa 44 00 
00 05 05 00 00 05 00 00 00 00 00 00 00 fa 44 00 
00 04 b8 00 00 05 00 00 00 00 00 00 00 fa 44 00 
00 05 10 00 00 05 00 00 00 00 00 00 00 fa 44 00 
00 05 25 00 00 05 00 00 00 00 00 00 00 fa 44 00 
00 05 a5 00 00 05 00 00 00 00 00 00 00 fa 44 00 
00 05 03 00 00 05 00 00 00 00 00 00 00 fa 44 00 
00 05 12 00 00 05 00 00 00 00 00 00 00 fa 44 00 
00 05 0b 00 00 05 00 00 00 00 00 00 00 fa 44 00 
00 05 27 00 00 05 00 00 00 00 00 00 00 fa 44 00 
00 05 23 00 00 05 00 00 00 00 00 00 00 fa 44 00 
00 05 23 00 00 05 00 00 00 00 00 00 00 fa 44 00 
00 05 74 00 00 05 00 00 00 00 00 00 00 fa 44 00 
00 05 03 00 00 05 00 00 00 00 00 00 00 fa 44 00 
00 05 32 00 00 05 00 00 00 00 00 00 00 fa 44 00 
00 05 12 00 00 05 00 00 00 00 00 00 00 fa 44 00 
00 05 14 00 00 05 00 00 00 00 00 00 00 fa 44 00 
00 05 27 00 00 05 00 00 00 00 00 00 00 fa 44 00 
00 04 ff 00 00 05 00 00 00 00 00 00 00 fa 44 00 
00 05 3a 00 00 05 00 00 00 00 00 00 00 fa 44 00 
00 05 3e 00 00 05 00 00 00 00 00 00 00 fa 44 00 
00 05 72 00 00 05 00 00 00 00 00 00 00 fa 44 00 
00 05 5f 00 00 05 00 00 00 00 00 00 00 fa 44 00 
00 05 21 00 00 05 00 00 00 00 00 00 00 fa 44 00 
00 05 81 00 00 05 00 00 00 00 00 00 00 fa 44 00 
00 04 e1 00 00 05 00 00 00 00 00 00 00 fa 44 00 
00 04 f8 00 00 05 00 00 00 00 00 00 00 fa 44 00 
00 05 29 00 00 05 00 00 00 00 00 00 00 fa 44 00 
00 04 e9 00 00 05 00 00 00 00 00 00 00 fa 44 00 
00 04 dd 00 00 05 00 00 00 00 00 00 00 fa 44 00 
00 04 f4 00 00 05 00 00 00 00 00 00 00 fa 44 00 
00 05 10 00 00 05 00 00 00 00 00 00 00 fa 44 00 
00 04 e3 00 00 05 00 00 00 00 00 00 00 fa 44 00 
00 04 df 00 00 05 00 00 00 00 00 00 00 fa 44 00 
00 05 03 00 00 05 00 00 00 00 00 00 00 fa 44 00 
00 05 03 00 00 05 00 00 00 00 00 00 00 fa 44 00 
00 05 0d 00 00 05 00 00 00 00 00 00 00 fa 44 00 
00 05 4d 00 00 05 00 00 00 00 00 00 00 fa 44 00 
00 05 57 00 00 05 00 00 00 00 00 00 00 fa 44 00 
00 05 27 00 00 05 00 00 00 00 00 00 00 fa 44 00 
00 05 1e 00 00 05 00 00 00 00 00 00 00 fa 44 00 
00 04 f0 00 00 05 00 00 00 00 00 00 00 fa 44 00 
00 05 01 00 00 05 00 00 00 00 00 00 00 fa 44 00 
00 05 0d 00 00 05 00 00 00 00 00 00 00 fa 44 00 
00 05 25 00 00 05 00 00 00 00 00 00 00 fa 44 00 
00 04 ce 00 00 05 00 00 00 00 00 00 00 fa 44 00 
00 04 f4 00 00 05 00 00 00 00 00 00 00 fa 44 00 
00 04 b8 00 00 05 00 00 00 00 00 00 00 fa 44 00 
00 04 b8 00 00 05 00 00 00 00 00 00 00 fa 44 00 
00 04 e9 00 00 05 00 00 00 00 00 00 00 fa 44 00 
00 04 d2 00 00 05 00 00 00 00 00 00 00 fa 44 00 
00 04 d8 00 00 05 00 00 00 00 00 00 00 fa 44 00 
00 04 ac 00 00 05 00 00 00 00 00 00 00 fa 44 00 
00 04 5d 00 00 05 00 00 00 00 00 00 00 fa 44 00 
00 04 6c 00 00 05 00 00 00 00 00 00 00 fa 44 00 
00 04 cc 00 00 05 00 00 00 00 00 00 00 fa 44 00 
00 04 a1 00 00 05 00 00 00 00 00 00 00 fa 44 00 
00 04 90 00 00 05 00 00 00 00 00 00 00 fa 44 00 
00 04 99 00 00 05 00 00 00 00 00 00 00 fa 44 00 
00 04 79 00 00 05 00 00 00 00 00 00 00 fa 44 00 
00 04 55 00 00 05 00 00 00 00 00 00 00 fa 44 00 
00 04 83 00 00 05 00 00 00 00 00 00 00 fa 44 00 
00 04 9b 00 00 05 00 00 00 00 00 00 00 fa 44 00 
00 04 92 00 00 05 00 00 00 00 00 00 00 fa 44 00 
00 04 85 00 00 05 00 00 00 00 00 00 00 fa 44 00 
00 05 05 00 00 05 00 00 00 00 00 00 00 fa 44 00 
00 04 da 00 00 05 00 00 00 00 00 00 00 fa 44 00 
00 04 d0 00 00 05 00 00 00 00 00 00 00 fa 44 00 
00 04 df 00 00 05 00 00 00 00 00 00 00 fa 44 00 
00 05 21 00 00 05 00 00 00 00 00 00 00 fa 44 00 
00 05 3c 00 00 05 00 00 00 00 00 00 00 fa 44 00 
00 04 f8 00 00 05 00 00 00 00 00 00 00 fa 44 00 
00 05 14 00 00 05 00 00 00 00 00 00 00 fa 44 00 
00 04 df 00 00 05 00 00 00 00 00 00 00 fa 44 00 
00 04 c5 00 00 05 00 00 00 00 00 00 00 fa 44 00 
00 04 e5 00 00 05 00 00 00 00 00 00 00 fa 44 00 
00 04 d8 00 00 05 00 00 00 00 00 00 00 fa 44 00 
00 04 9b 00 00 05 00 00 00 00 00 00 00 fa 44 00 
00 04 e7 00 00 05 00 00 00 00 00 00 00 fa 44 00 
00 04 e1 00 00 05 00 00 00 00 00 00 00 fa 44 00 
00 05 2f 00 00 05 00 00 00 00 00 00 00 fa 44 00 
00 05 16 00 00 05 00 00 00 00 00 00 00 fa 44 00 
00 05 63 00 00 05 00 00 00 00 00 00 00 fa 44 00 
00 05 10 00 00 05 00 00 00 00 00 00 00 fa 44 00 
00 05 0d 00 00 05 00 00 00 00 00 00 00 fa 44 00 
00 05 6c 00 00 05 00 00 00 00 00 00 00 fa 44 00 
00 04 fa 00 00 05 00 00 00 00 00 00 00 fa 44 00 
00 05 45 00 00 05 00 00 00 00 00 00 00 fa 44 00 
00 05 2f 00 00 05 00 00 00 00 00 00 00 fa 44 00 
00 05 96 00 00 05 00 00 00 00 00 00 00 fa 44 00 
00 05 61 00 00 05 00 00 00 00 00 00 00 fa 44 00 
00 05 b0 00 00 05 00 00 00 00 00 00 00 fa 44 00 
00 05 01 00 00 05 00 00 00 00 00 00 00 fa 44 00 
00 04 d4 00 00 05 00 00 00 00 00 00 00 fa 44 00 
00 05 49 00 00 05 00 00 00 00 00 00 00 fa 44 00 
00 05 14 00 00 05 00 00 00 00 00 00 00 fa 44 00 
00 05 27 00 00 05 00 00 00 00 00 00 00 fa 44 00 
00 04 f8 00 00 05 00 00 00 00 00 00 00 fa 44 00 
00 05 0b 00 00 05 00 00 00 00 00 00 00 fa 44 00 
00 04 d8 00 00 05 00 00 00 00 00 00 00 fa 44 00 
00 05 14 00 00 05 00 00 00 00 00 00 00 fa 44 00 
00 04 c5 00 00 05 00 00 00 00 00 00 00 fa 44 00 
00 04 e7 00 00 05 00 00 00 00 00 00 00 fa 44 00 
00 04 ce 00 00 05 00 00 00 00 00 00 00 fa 44 00 
00 04 dd 00 00 05 00 00 00 00 00 00 00 fa 44 00 
00 05 29 00 00 05 00 00 00 00 00 00 00 fa 44 00 
00 04 e7 00 00 05 00 00 00 00 00 00 00 fa 44 00 
00 04 e9 00 00 05 00 00 00 00 00 00 00 fa 44 00 
00 05 23 00 00 05 00 00 00 00 00 00 00 fa 44 00 
00 05 27 00 00 05 00 00 00 00 00 00 00 fa 44 00 
00 04 e7 00 00 05 00 00 00 00 00 00 00 fa 44 00 
00 04 b2 00 00 05 00 00 00 00 00 00 00 fa 44 00 
00 04 d0 00 00 05 00 00 00 00 00 00 00 fa 44 00 
00 04 b0 00 00 05 00 00 00 00 00 00 00 fa 44 00 
00 04 a1 00 00 05 00 00 00 00 00 00 00 fa 44 00 
00 04 c1 00 00 05 00 00 00 00 00 00 00 fa 44 00 
00 05 05 00 00 05 00 00 00 00 00 00 00 fa 44 00 
00 04 e3 71 25 00 00 22 66 36 70 00 00 10 00 00 
00 04 70 00 00 05 00 00 00 c2 84 00 00 fa 44 00 
00 04 ac 00 00 05 00 00 00 c2 84 00 00 fa 44 00 
00 04 e9 00 00 05 00 00 00 c2 84 00 00 fa 44 00 
00 04 e9 00 00 05 00 00 00 c2 84 00 00 fa 44 00 
00 05 01 00 00 05 00 00 00 c2 84 00 00 fa 44 00 
00 04 eb 00 00 05 00 00 00 c2 84 00 00 fa 44 00 
00 04 7f 00 00 05 00 00 00 c2 84 00 00 fa 44 00 
00 04 94 00 00 05 00 00 00 c2 84 00 00 fa 44 00 
00 04 b6 00 00 05 00 00 00 c2 84 00 00 fa 44 00 
00 04 b0 00 00 05 00 00 00 c2 84 00 00 fa 44 00 
00 04 df 00 00 05 00 00 00 c2 84 00 00 fa 44 00 
